CH1
0.0193481
0.023193400000000003
0.0262451
0.0283813
0.0307007
0.034057599999999986
0.0385132
0.0426636
0.0460815
0.0507812
0.0562744
0.0633545
0.0714722
0.0784302
0.0842285
0.0894165
0.0953979
0.102478
0.112244
0.123657
0.134949
0.145386
0.155029
0.164368
0.173706
0.182556
0.190857
0.19812
0.203613
0.207581
0.209412
0.207581
0.202209
0.193237
0.182922
0.17108199999999998
0.157471
0.140198
0.119446
0.0979614
0.0761108
0.056457500000000015
0.0383301
0.0215454
0.00695801
-0.00598145
-0.016235399999999997
-0.0224609
-0.0258789
-0.027771
-0.0298462
-0.032775900000000004
-0.0367432
-0.0405273
-0.0426025
-0.0436401
-0.0429688
-0.041870099999999986
-0.041442900000000005
-0.0412598
-0.040405300000000005
-0.0385742
-0.0357056
-0.0332031
-0.0319214
-0.031860400000000004
-0.033325199999999985
-0.0345459
-0.035461400000000004
-0.0357056
-0.0352783
-0.034118699999999995
-0.0324707
-0.031066900000000005
-0.0314941
-0.032226599999999994
-0.0334473
-0.032775900000000004
-0.0298462
-0.0275879
-0.026367200000000004
-0.026794400000000003
-0.0275269
-0.0272217
-0.026123
-0.0246582
-0.023315400000000003
-0.0228271
-0.022399900000000004
-0.0209351
-0.0195923
-0.0196533
-0.0203247
-0.0210571
-0.020752
-0.0196533
-0.018981900000000003
-0.0194702
-0.0197144
-0.0197144
-0.019043
-0.0177002
-0.016113299999999997
-0.0148315
-0.014892600000000002
-0.0151367
-0.015625
-0.015625
-0.0149536
-0.0144043
-0.0140381
-0.0144653
-0.015563999999999996
-0.016113299999999997
-0.0164185
-0.017211900000000002
-0.0176392
-0.0181274
-0.0181274
-0.0172729
-0.0178223
-0.0194702
-0.0210571
-0.022033700000000003
-0.0197144
-0.016723599999999998
-0.0151367
-0.0164185
-0.0203857
-0.0250244
-0.0282593
-0.0279541
-0.025634800000000003
-0.0230103
-0.022033700000000003
-0.0228882
-0.0250244
-0.02771
-0.031066900000000005
-0.0324097
-0.03125
-0.0282593
-0.024353
-0.0209351
-0.0205078
-0.0222778
-0.0247192
-0.0266724
-0.0275269
-0.0275269
-0.0272217
-0.0273438
-0.0273438
-0.0266724
-0.026001
-0.0252686
-0.0259399
-0.0271606
-0.0288086
-0.029785200000000005
-0.0280151
-0.0263062
-0.0253906
-0.0255737
-0.025817900000000005
-0.0250854
-0.024353
-0.024231
-0.0251465
-0.026001
-0.0264893
-0.0253906
-0.023864700000000003
-0.0222168
-0.0212402
-0.0213623
-0.022399900000000004
-0.022399900000000004
-0.022399900000000004
-0.023315400000000003
-0.0249634
-0.025634800000000003
-0.0244141
-0.0212402
-0.0180054
-0.016662599999999996
-0.017394999999999997
-0.019165
-0.0201416
-0.0195312
-0.0178223
-0.0167847
-0.016845699999999998
-0.0181885
-0.0194092
-0.0205688
-0.0205078
-0.0196533
-0.0202637
-0.0203247
-0.0192871
-0.016235399999999997
-0.013305700000000002
-0.0111694
-0.0115356
-0.0136719
-0.0144043
-0.013916
-0.0135498
-0.0136108
-0.0140381
-0.014099100000000003
-0.0132446
-0.0123291
-0.012146
-0.0129395
-0.0134888
-0.0141602
-0.0133667
-0.011718799999999998
-0.0110474
-0.0101929
-0.00915527
-0.00811768
-0.00732422
-0.00750732
-0.00769043
-0.00836182
-0.00823975
-0.00762939
-0.00689697
-0.00738525
-0.00775146
-0.00909424
-0.00970459
-0.0100708
-0.00897217
-0.00701904
-0.0055542000000000005
-0.00408936
-0.0032959000000000005
-0.00366211
-0.00415039
-0.004516600000000001
-0.00561523
-0.00665283
-0.00683594
-0.00628662
-0.00445557
-0.00231934
-0.00115967
-0.000793457
-0.000793457
-0.000976562
-0.00201416
-0.00341797
-0.00384521
-0.00341797
-0.00244141
-0.00115967
-0.00170898
-0.00262451
-0.00323486
-0.00323486
-0.00244141
-0.000854492
-6.10352e-05
-0.0007324219999999999
-0.00189209
-0.00311279
-0.00372314
-0.00183105
0.00152588
0.00524902
0.00744629
0.00860596
0.010498
0.0150146
0.0219727
0.029785200000000005
0.0372925
0.043457
0.049133300000000005
0.0549316
0.0600586
0.0635376
0.064209
0.0601196
0.053833000000000006
0.0481567
0.0448608
0.0444336
0.0427246
0.0379639
0.0278931
0.014892600000000002
0.00231934
-0.00537109
-0.00775146
-0.00616455
-0.00335693
-0.00201416
-0.0020752
-0.00219727
-0.00231934
-0.00238037
-0.0022583000000000004
-0.00268555
-0.00372314
-0.00396729
-0.00354004
-0.00268555
-0.00262451
-0.004516600000000001
-0.00622559
-0.00177002
0.0187988
0.0637207
0.135925
0.232727
0.346802
0.45813
0.5391239999999999
0.5532229999999999
0.484009
0.339966
0.167969
0.0205078
-0.0686646
-0.0932617
-0.0725708
-0.0334473
0.004516600000000001
0.0298462
0.039917
0.0384521
0.0324097
0.0261841
0.022949200000000003
0.0232544
0.0250244
0.0273438
0.028442400000000007
0.0285645
0.028442400000000007
0.0270386
0.0274658
0.0290527
0.0316772
0.0354004
0.0385132
0.0396118
0.039856
0.0397949
0.0408325
0.0428467
0.0454712
0.0480957
0.0508423
0.0533447
0.0560913
0.059021
0.060546900000000015
0.0620117
0.0635376
0.0664673
0.0690308
0.07189939999999999
0.0752563
0.078125
0.0830688
0.0879517
0.0932617
0.0997314
0.105957
0.112
0.118713
0.125244
0.132141
0.139343
0.147034
0.155151
0.163757
0.174011
0.185059
0.196594
0.207458
0.215759
0.221191
0.224243
0.225952
0.226929
0.227173
0.22583000000000006
0.223083
0.21820100000000006
0.210815
0.200439
0.186829
0.169983
0.150818
0.129456
0.108582
0.088501
0.07110599999999999
0.0574951
0.0471802
0.038208
0.031311
0.025817900000000005
0.0222168
0.0198975
0.0178223
0.015319799999999996
0.0128174
0.0102539
0.0088501
0.00823975
0.0088501
0.0101318
0.0112915
0.0114746
0.010376
0.00964355
0.00939941
0.010437
0.0123901
0.013855
0.0144653
0.0141602
0.0141602
0.014526400000000004
0.016052200000000003
0.0186768
0.020752
0.0219727
0.0224609
0.0217896
0.020752
0.0215454
0.0234375
0.0244141
0.0230103
0.020874
0.020752
0.022644
0.025817900000000005
0.028442400000000007
0.028198200000000007
0.0266113
0.0250244
0.023315400000000003
0.0227051
0.022399900000000004
0.0228882
0.0239868
0.0250854
0.0247803
0.0234985
0.0215454
0.0204468
0.0209351
0.022033700000000003
0.022033700000000003
0.020752
0.0188599
0.0172729
0.0172729
0.0198364
0.0217896
0.0224609
0.0218506
0.0205688
0.0202026
0.0215454
0.0221558
0.0214233
0.0202637
0.019104
0.019043
0.0198364
0.0206909
0.0202026
0.0192871
0.018066400000000003
0.0174561
0.0178833
0.0184937
0.0184326
0.0178223
0.017028799999999997
0.0162964
0.016601599999999998
0.016845699999999998
0.017028799999999997
0.015808100000000002
0.015319799999999996
0.0153809
0.015930200000000002
0.0157471
0.0142822
0.011779799999999998
0.0098877
0.00952148
0.0115356
0.013855
0.015625
0.0155029
0.014099100000000003
0.0113525
0.0098877
0.00952148
0.00927734
0.00915527
0.00848389
0.00891113
0.00958252
0.0105591
0.0115356
0.0105591
0.00897217
0.00842285
0.00994873
0.0111694
0.0125732
0.0119019
0.010681200000000002
0.0101929
0.010681200000000002
0.0115967
0.0120239
0.0118408
0.0112305
0.0100708
0.00958252
0.00958252
0.0101318
0.0103149
0.00976562
0.00860596
0.00872803
0.00872803
0.00958252
0.010498
0.0109863
0.0101318
0.00952148
0.0088501
0.00994873
0.0126953
0.015808100000000002
0.0167847
0.015808100000000002
0.0137939
0.0115967
0.012207
0.013916
0.0148315
0.0144043
0.0128174
0.0113525
0.00994873
0.00970459
0.010437
0.012085
0.0147095
0.015930200000000002
0.015686000000000002
0.0149536
0.0147705
0.014892600000000002
0.016052200000000003
0.0174561
0.018066400000000003
0.0179443
0.016662599999999996
0.015808100000000002
0.0151367
0.015808100000000002
0.0161743
0.016235399999999997
0.015808100000000002
0.014892600000000002
0.0137329
0.0128174
0.0133667
0.014892600000000002
0.0153809
0.0150757
0.014099100000000003
0.0130005
0.0131226
0.014099100000000003
0.015197799999999997
0.0164185
0.017028799999999997
0.016479499999999998
0.016235399999999997
0.015930200000000002
0.0164185
0.0178833
0.0187378
0.0184937
0.0175781
0.015808100000000002
0.0139771
0.0130615
0.0126343
0.012085
0.0114136
0.0109253
0.0113525
0.0119019
0.0128784
0.0144653
0.0151367
0.0144653
0.0131226
0.0119019
0.011779799999999998
0.0128174
0.0134277
0.0153809
0.0159912
0.016662599999999996
0.0184937
0.0213013
0.0257568
0.031555200000000005
0.0367432
0.0413818
0.0471191
0.0532227
0.0593262
0.0649414
0.0689697
0.0698242
0.0687866
0.0668335
0.0635376
0.0601196
0.055419900000000015
0.0479736
0.0378418
0.0250854
0.012085
0.000671387
-0.00775146
-0.00994873
-0.00817871
-0.00445557
-0.0007324219999999999
0.00158691
0.00115967
-0.000671387
-0.00286865
-0.00445557
-0.00628662
-0.0067749
-0.00701904
-0.00653076
-0.00561523
-0.00488281
-0.00592041
-0.00823975
-0.00854492
-0.00213623
0.0200806
0.0657349
0.13684100000000002
0.230042
0.338318
0.445312
0.520752
0.5332640000000001
0.464417
0.320068
0.147827
-0.00134277
-0.0933228
-0.119873
-0.098999
-0.056457500000000015
-0.014221200000000003
0.016235399999999997
0.0308228
0.031066900000000005
0.024353
0.017211900000000002
0.0135498
0.013183600000000002
0.0143433
0.015625
0.0159912
0.016967799999999998
0.016967799999999998
0.0183105
0.0196533
0.0205688
0.0215454
0.0228882
0.0240479
0.0262451
0.0286255
0.0304565
0.032714799999999995
0.034729
0.0368042
0.038147
0.0384521
0.0394897
0.0405884
0.0432129
0.0470581
0.0507812
0.0544434
0.0570068
0.0593262
0.0626831
0.06665039999999997
0.0716553
0.07635499999999999
0.0806885
0.0846558
0.0894775
0.0957642
0.102722
0.109985
0.117859
0.125305
0.133606
0.14294400000000002
0.152771
0.163879
0.17419400000000002
0.184875
0.193542
0.201172
0.20813
0.214722
0.220825
0.224731
0.226013
0.22515900000000005
0.223511
0.220154
0.213135
0.202393
0.187744
0.169128
0.148438
0.12579300000000002
0.103088
0.08172610000000001
0.0618896
0.0445557
0.0296021
0.0175781
0.00848389
0.000305176
-0.00579834
-0.0112305
-0.0159912
-0.0201416
-0.0234985
-0.0261841
-0.0281372
-0.029480000000000006
-0.0296021
-0.0287476
-0.026916500000000003
-0.0254517
-0.025817900000000005
-0.0270996
-0.0296631
-0.0303955
-0.0299683
-0.0275879
-0.0255737
-0.0239868
-0.0235596
-0.0240479
-0.0257568
-0.0272827
-0.0286865
-0.0282593
-0.0262451
-0.024292
-0.0228271
-0.0221558
-0.0219116
-0.022583
-0.0228882
-0.0224609
-0.0222778
-0.0214844
-0.0203857
-0.0201416
-0.0197754
-0.0200195
-0.0211792
-0.0222778
-0.022583
-0.0214844
-0.0212402
-0.0214233
-0.0228882
-0.0244141
-0.0250244
-0.024108900000000003
-0.0220947
-0.0194092
-0.0181274
-0.0192261
-0.0210571
-0.0220947
-0.0216064
-0.0203247
-0.0202026
-0.0228882
-0.0266724
-0.0291748
-0.0291138
-0.0269775
-0.0238037
-0.0217896
-0.0219727
-0.0230103
-0.0252075
-0.0270386
-0.0278931
-0.027771
-0.0265503
-0.0265503
-0.02771
-0.0289917
-0.0304565
-0.0313721
-0.0335693
-0.0353394
-0.0353394
-0.034729
-0.0324097
-0.0308838
-0.032653800000000004
-0.0348511
-0.0377197
-0.0390625
-0.0388184
-0.0385132
-0.0390015
-0.0402832
-0.0418091
-0.0425415
-0.0427246
-0.0425415
-0.0422974
-0.0427856
-0.0438843
-0.0457764
-0.0457764
-0.0446777
-0.0429077
-0.0415649
-0.0411987
-0.043335000000000005
-0.0460815
-0.049987800000000006
-0.0518799
-0.0513916
-0.0484619
-0.0452271
-0.0441284
-0.044006300000000005
-0.0455933
-0.0476685
-0.0495605
-0.051147500000000005
-0.0514526
-0.0509033
-0.0490723
-0.0471802
-0.0465698
-0.046936
-0.0490723
-0.049987800000000006
-0.0487671
-0.0480347
-0.0477295
-0.0473022
-0.0475464
-0.046875
-0.0463257
-0.0462646
-0.0472412
-0.0487671
-0.0494385
-0.0494995
-0.0488281
-0.0490723
-0.049804699999999986
-0.0505371
-0.0507202
-0.049682599999999986
-0.0484619
-0.0465088
-0.0455933
-0.0454712
-0.0465698
-0.0473633
-0.0472412
-0.0454712
-0.0429077
-0.0405273
-0.0393066
-0.0383911
-0.0392456
-0.0415039
-0.045166000000000005
-0.048950199999999985
-0.0507812
-0.0510864
-0.0490723
-0.0447388
-0.0393066
-0.0346069
-0.0306396
-0.026001
-0.021667500000000003
-0.016052200000000003
-0.00915527
-0.00256348
0.00292969
0.00671387
0.00891113
0.00830078
0.00598145
0.0022583000000000004
-0.00134277
-0.00421143
-0.00750732
-0.0135498
-0.0254517
-0.0406494
-0.0544434
-0.06323240000000001
-0.0645752
-0.0612793
-0.0570679
-0.0548706
-0.0556641
-0.0577393
-0.0597534
-0.060791
-0.0613403
-0.0618286
-0.0625
-0.0631714
-0.0633545
-0.0631714
-0.0625
-0.0610962
-0.0594482
-0.05896000000000001
-0.0585938
-0.0551147
-0.0420532
-0.0103149
0.0448608
0.122375
0.217224
0.316284
0.39801
0.4285890000000001
0.386047
0.266418
0.10376
-0.0493774
-0.15173299999999998
-0.189819
-0.176514
-0.135681
-0.0891113
-0.0494995
-0.0245361
-0.0157471
-0.0198364
-0.0287476
-0.0363159
-0.0393677
-0.0372925
-0.033325199999999985
-0.029480000000000006
-0.026001
-0.023315400000000003
-0.0213013
-0.0199585
-0.0189209
-0.0181274
-0.0172729
-0.016052200000000003
-0.0147705
-0.0131226
-0.010437
-0.00744629
-0.003479
-0.000183105
0.00177002
0.00231934
0.00238037
0.00354004
0.0078125
0.0136719
0.0187988
0.0227051
0.024108900000000003
0.0251465
0.0275879
0.0317383
0.0378418
0.0443726
0.0508423
0.057251
0.0643311
0.07128910000000001
0.0777588
0.08288569999999999
0.0886841
0.0952759
0.102844
0.112549
0.124634
0.137329
0.149048
0.159485
0.168762
0.177734
0.18689
0.195801
0.202271
0.207031
0.209961
0.21167
0.211975
0.208923
0.199768
0.18457
0.166138
0.144653
0.123352
0.102051
0.0797729
0.0588379
0.0397339
0.022399900000000004
0.00756836
-0.00457764
-0.0151367
-0.0240479
-0.0307007
-0.0353394
-0.0383301
-0.0402222
-0.041626
-0.0429077
-0.0437622
-0.0452881
-0.0463867
-0.0463257
-0.0455322
-0.0431519
-0.0422363
-0.0422363
-0.0419312
-0.0419312
-0.0406494
-0.0397339
-0.0391846
-0.0404663
-0.041137699999999985
-0.0405273
-0.0378418
-0.0335693
-0.0309448
-0.0320435
-0.034668
-0.036254900000000014
-0.035522500000000005
-0.0324097
-0.0298462
-0.0289917
-0.0294189
-0.029785200000000005
-0.0289917
-0.0269775
-0.025634800000000003
-0.0250244
-0.0248413
-0.0244141
-0.0233765
-0.022399900000000004
-0.0219116
-0.0217896
-0.0211182
-0.0204468
-0.0194702
-0.019165
-0.0196533
-0.0198975
-0.0192261
-0.017334
-0.015930200000000002
-0.015808100000000002
-0.0167847
-0.017334
-0.017211900000000002
-0.0157471
-0.0146484
-0.0145874
-0.0152588
-0.016113299999999997
-0.016845699999999998
-0.017211900000000002
-0.0183716
-0.0174561
-0.0164185
-0.0150146
-0.0128784
-0.012146
-0.0133667
-0.014526400000000004
-0.0161743
-0.0183716
-0.0200806
-0.0219727
-0.0219727
-0.020752
-0.0196533
-0.019165
-0.0202026
-0.022583
-0.0246582
-0.026916500000000003
-0.027832
-0.0268555
-0.0250244
-0.0238037
-0.0234985
-0.0236816
-0.023193400000000003
-0.024231
-0.0252075
-0.0270996
-0.0291748
-0.03125
-0.0324097
-0.0319824
-0.0307007
-0.0293579
-0.0282593
-0.0272827
-0.0271606
-0.0275269
-0.0285034
-0.0292969
-0.0296631
-0.0296631
-0.0292969
-0.0290527
-0.0292969
-0.0299683
-0.0300903
-0.0296631
-0.0270996
-0.022949200000000003
-0.0195923
-0.0175781
-0.0158691
-0.0137329
-0.0118408
-0.00952148
-0.00830078
-0.00805664
-0.00683594
-0.00512695
-0.00311279
-0.00201416
-0.00250244
-0.00305176
-0.00323486
-0.00195312
0.00012207
0.00250244
0.00299072
0.00274658
0.000976562
-0.00128174
-0.00213623
-0.0012207
0.000427246
0.00231934
0.0020752
0.00262451
0.00335693
0.0043335
0.00506592
0.00567627
0.00549316
0.00463867
0.00323486
0.00231934
0.00213623
0.00335693
0.00543213
0.00756836
0.0088501
0.00921631
0.00921631
0.00805664
0.00720215
0.00622559
0.00610352
0.00689697
0.00830078
0.00994873
0.0106201
0.010376
0.0100098
0.00878906
0.00836182
0.00830078
0.00982666
0.0119019
0.0132446
0.0134277
0.0128174
0.0126343
0.0140381
0.017211900000000002
0.0220947
0.0285034
0.034179699999999986
0.0396118
0.0454712
0.0522461
0.0593872
0.0656738
0.06988530000000001
0.07073969999999999
0.06964110000000001
0.0674438
0.06414790000000001
0.0613403
0.057678199999999985
0.0532837
0.0479736
0.0406494
0.0314331
0.0199585
0.00805664
-0.00012207
-0.00305176
-0.00128174
0.00299072
0.00640869
0.00738525
0.00567627
0.00317383
0.000427246
-0.000793457
-0.00134277
-0.000305176
0.00140381
0.00402832
0.00671387
0.00811768
0.00640869
0.00164795
-0.00152588
0.00390625
0.027832
0.078125
0.154358
0.251831
0.361633
0.468201
0.541931
0.549622
0.475525
0.329224
0.158997
0.0158691
-0.06793210000000001
-0.0881958
-0.0664673
-0.0289307
0.00598145
0.0281372
0.0368652
0.035522500000000005
0.029480000000000006
0.024108900000000003
0.022033700000000003
0.023864700000000003
0.0279541
0.0324097
0.036377
0.038147
0.036987300000000015
0.0350342
0.0335693
0.0338745
0.036132800000000014
0.0397339
0.0426025
0.0444336
0.0448608
0.045166000000000005
0.0460815
0.048950199999999985
0.0521851
0.0545044
0.0558472
0.0565796
0.0585938
0.06060790000000001
0.0618896
0.0628662
0.0647583
0.0678711
0.072937
0.07910160000000001
0.0838623
0.0872192
0.08953860000000001
0.0921021
0.0959473
0.102173
0.109436
0.116882
0.124146
0.131409
0.138794
0.145752
0.153625
0.162964
0.172852
0.183655
0.194885
0.2052
0.21447800000000006
0.222717
0.229858
0.23645
0.240601
0.241882
0.240967
0.237183
0.229858
0.221863
0.213135
0.202637
0.189514
0.172424
0.151428
0.129456
0.108459
0.08862300000000001
0.0705566
0.0553589
0.0429688
0.0332642
0.0253296
0.0193481
0.015930200000000002
0.0133667
0.0115356
0.00994873
0.00756836
0.00476074
0.00341797
0.0032959000000000005
0.00457764
0.00714111
0.00897217
0.0101318
0.00964355
0.00823975
0.00708008
0.00634766
0.0078125
0.00878906
0.00921631
0.00964355
0.010376
0.0119629
0.0139771
0.014892600000000002
0.0147705
0.0139771
0.014099100000000003
0.015319799999999996
0.017211900000000002
0.0189209
0.0187988
0.0178833
0.017761199999999998
0.0184326
0.0203247
0.0222168
0.0228271
0.0230713
0.0227661
0.0217285
0.0214844
0.020752
0.0204468
0.0202637
0.0193481
0.0194092
0.0202026
0.0216064
0.0228271
0.023315400000000003
0.022949200000000003
0.0211182
0.0195312
0.019104
0.019165
0.0186768
0.0175781
0.016052200000000003
0.0147095
0.013183600000000002
0.012146
0.0113525
0.0108032
0.0111084
0.0119019
0.0128784
0.013183600000000002
0.0133667
0.013305700000000002
0.0131226
0.0142822
0.0136719
0.0124512
0.011718799999999998
0.0108643
0.0109253
0.0108643
0.0100098
0.0088501
0.00830078
0.00823975
0.00830078
0.00854492
0.00939941
0.00909424
0.00805664
0.00622559
0.00476074
0.00366211
0.00341797
0.00372314
0.00439453
0.00585938
0.00732422
0.0078125
0.00616455
0.00317383
-0.000366211
-0.00305176
-0.00311279
-0.00152588
0.0007324219999999999
0.00231934
0.00231934
0.00140381
-0.000549316
-0.00256348
-0.00317383
-0.000976562
0.0020752
0.00415039
0.00402832
0.00280762
0.00140381
0.0010376
0.0007324219999999999
0.000671387
-6.10352e-05
-0.000366211
-0.00012207
0.000610352
0.000854492
0.000854492
0.000488281
0.00109863
0.00158691
0.00177002
0.00146484
0.00146484
0.00140381
0.00109863
-0.000305176
-0.0007324219999999999
0.00012207
0.00201416
0.00421143
0.00506592
0.00408936
0.000305176
-0.00274658
-0.00378418
-0.00256348
0.00115967
0.00439453
0.00567627
0.00610352
0.0055542000000000005
0.00567627
0.00512695
0.00439453
0.00335693
0.00244141
0.00238037
0.00274658
0.00311279
0.00341797
0.00372314
0.00445557
0.00561523
0.00622559
0.00567627
0.00457764
0.00335693
0.00292969
0.00274658
0.00256348
0.00372314
0.00457764
0.00506592
0.00488281
0.00439453
0.00378418
0.00408936
0.00421143
0.00457764
0.00463867
0.00378418
0.00274658
0.00231934
0.00262451
0.003479
0.00445557
0.00537109
0.00592041
0.00512695
0.00378418
0.0022583000000000004
0.00177002
0.00231934
0.00378418
0.00494385
0.00561523
0.005737300000000001
0.00494385
0.00372314
0.00311279
0.00354004
0.0043335
0.00506592
0.00616455
0.00592041
0.00518799
0.00476074
0.00457764
0.00512695
0.00549316
0.00543213
0.00561523
0.00537109
0.00457764
0.00408936
0.00354004
0.00372314
0.00402832
0.00372314
0.00366211
0.00366211
0.00390625
0.00469971
0.00488281
0.00537109
0.00500488
0.00299072
0.00177002
0.00128174
0.00299072
0.00592041
0.00689697
0.00598145
0.00372314
0.00170898
0.0010376
0.00152588
0.0020752
0.0022583000000000004
0.00164795
0.00146484
0.00177002
0.00146484
0.00146484
0.0010376
0.0007324219999999999
6.10352e-05
-0.000183105
-0.00146484
-0.00238037
-0.00231934
-0.00158691
-0.000183105
0.000671387
0.00140381
0.00134277
0.000976562
0.0010376
0.00140381
0.00152588
0.0012207
0.000183105
-0.00146484
-0.00354004
-0.00524902
-0.00561523
-0.00469971
-0.00280762
-0.00152588
-0.0010376
-0.000549316
-0.0007324219999999999
6.10352e-05
0.00152588
0.00372314
0.00689697
0.0114136
0.016052200000000003
0.0214844
0.0283813
0.0352173
0.0426025
0.0487061
0.053710900000000006
0.056457500000000015
0.056457500000000015
0.0544434
0.0509644
0.0473633
0.044067400000000014
0.0405273
0.036132800000000014
0.0280762
0.016845699999999998
0.0043335
-0.00598145
-0.0130005
-0.0152588
-0.015319799999999996
-0.0150146
-0.0147705
-0.016113299999999997
-0.0175781
-0.0176392
-0.0171509
-0.0158691
-0.0151367
-0.015441899999999996
-0.016479499999999998
-0.0177002
-0.0189209
-0.0194702
-0.0211792
-0.024292
-0.0223389
-0.00701904
0.0321045
0.0998535
0.192993
0.302795
0.414917
0.502991
0.531616
0.480713
0.349487
0.176941
0.017028799999999997
-0.0913696
-0.131897
-0.11908
-0.07733150000000001
-0.0305786
0.00579834
0.0237427
0.0253296
0.0175781
0.00848389
0.00213623
-0.00152588
-0.00305176
-0.00305176
-0.000305176
0.00354004
0.00714111
0.00939941
0.00939941
0.00866699
0.00878906
0.00854492
0.00964355
0.0113525
0.0140381
0.016113299999999997
0.0187988
0.0209961
0.0218506
0.022399900000000004
0.0227051
0.0236816
0.0247192
0.0259399
0.0280151
0.031189
0.034729
0.0385742
0.0410767
0.0435791
0.0472412
0.052063
0.0579834
0.06414790000000001
0.0688477
0.0725708
0.0761108
0.0807495
0.0871582
0.0943604
0.103333
0.113159
0.124023
0.134705
0.144043
0.152344
0.160217
0.168213
0.177246
0.186951
0.196106
0.203308
0.207275
0.209106
0.208435
0.206299
0.201294
0.194458
0.185669
0.173645
0.159302
0.142456
0.124207
0.105774
0.0861816
0.0664062
0.0463867
0.028442400000000007
0.0130615
0.000915527
-0.00811768
-0.0145874
-0.0201416
-0.0253906
-0.0307007
-0.034423800000000004
-0.0367432
-0.038269
-0.038269
-0.038269
-0.038269
-0.038208
-0.0377808
-0.0370483
-0.0371094
-0.0377808
-0.0385742
-0.0388794
-0.0388794
-0.038147
-0.0385132
-0.0390015
-0.0385132
-0.0379639
-0.0363159
-0.0322876
-0.0299072
-0.0283813
-0.0283203
-0.0294189
-0.0309448
-0.032653800000000004
-0.0343018
-0.0352783
-0.0352173
-0.034118699999999995
-0.0331421
-0.032226599999999994
-0.031189
-0.0300903
-0.0298462
-0.030761700000000006
-0.0311279
-0.030761700000000006
-0.0296021
-0.0278931
-0.026367200000000004
-0.0255127
-0.0267334
-0.029541
-0.0319824
-0.034179699999999986
-0.0344849
-0.0328979
-0.031066900000000005
-0.0291138
-0.0281372
-0.0282593
-0.0288086
-0.0300903
-0.0316772
-0.03302
-0.033508300000000005
-0.0331421
-0.0321045
-0.032714799999999995
-0.0342407
-0.0352783
-0.0357666
-0.0358276
-0.0368652
-0.0377808
-0.0391235
-0.0397949
-0.039856
-0.0406494
-0.0424194
-0.0435791
-0.043396
-0.041626
-0.0388794
-0.0377808
-0.0385742
-0.0405273
-0.0424194
-0.043945300000000014
-0.0462036
-0.0480347
-0.048950199999999985
-0.049133300000000005
-0.0481567
-0.0475464
-0.0473633
-0.0473633
-0.0487061
-0.050293
-0.0517578
-0.0532227
-0.0532227
-0.052795400000000006
-0.0522461
-0.0510864
-0.050293
-0.0507812
-0.0509033
-0.0509644
-0.0510254
-0.0512085
-0.052124
-0.0534058
-0.0548096
-0.0546265
-0.053955099999999985
-0.0542603
-0.0549316
-0.0557861
-0.0561523
-0.0548706
-0.0541992
-0.0551147
-0.057312
-0.0591431
-0.0588989
-0.0574951
-0.0552979
-0.052917499999999985
-0.051696800000000015
-0.051696800000000015
-0.052002
-0.0533447
-0.0545654
-0.055481
-0.0563965
-0.0570068
-0.05688480000000001
-0.0567017
-0.056762699999999985
-0.056640599999999985
-0.0565796
-0.0563354
-0.055603
-0.055542
-0.0553589
-0.0551758
-0.0546265
-0.0541992
-0.052917499999999985
-0.0523071
-0.0532227
-0.0560303
-0.0579834
-0.0603638
-0.0601196
-0.05780030000000001
-0.0546875
-0.0519409
-0.0501709
-0.050415
-0.052002
-0.0542603
-0.0563354
-0.057678199999999985
-0.05694580000000001
-0.055481
-0.0532227
-0.051696800000000015
-0.0523071
-0.053955099999999985
-0.0559692
-0.0574951
-0.0584717
-0.0577393
-0.0558472
-0.0545654
-0.053955099999999985
-0.053710900000000006
-0.0531616
-0.052673300000000006
-0.052002
-0.052612300000000015
-0.0545044
-0.0563965
-0.0574341
-0.05688480000000001
-0.0551758
-0.053710900000000006
-0.0535278
-0.054992700000000005
-0.0575562
-0.06024169999999999
-0.0622559
-0.0629883
-0.0620117
-0.0601807
-0.0581665
-0.05780030000000001
-0.0581055
-0.05896000000000001
-0.06024169999999999
-0.060546900000000015
-0.0591431
-0.057373
-0.0561523
-0.0560303
-0.0571899
-0.060546900000000015
-0.06323240000000001
-0.0637817
-0.0628662
-0.0608521
-0.0595703
-0.0598755
-0.0612183
-0.0611572
-0.0600586
-0.0592651
-0.0599976
-0.0611572
-0.0623779
-0.0622559
-0.0612793
-0.0599976
-0.059082
-0.059021
-0.05792240000000001
-0.054992700000000005
-0.0518188
-0.0476074
-0.0441895
-0.0410156
-0.035949699999999994
-0.029480000000000006
-0.0221558
-0.0149536
-0.00933838
-0.0055542000000000005
-0.00439453
-0.00585938
-0.0101929
-0.0145874
-0.019104
-0.0223389
-0.026123
-0.033081099999999995
-0.0460205
-0.0608521
-0.0735474
-0.08001710000000001
-0.0792236
-0.074585
-0.0702515
-0.0697021
-0.07135010000000001
-0.0748901
-0.07635499999999999
-0.074646
-0.0730591
-0.07269289999999999
-0.0742188
-0.0760498
-0.0761108
-0.07470700000000001
-0.07281489999999999
-0.0721436
-0.0725708
-0.07391360000000001
-0.0697021
-0.0518188
-0.0135498
0.0482788
0.130676
0.226135
0.31811500000000004
0.375427
0.369568
0.2901
0.149475
-0.00549316
-0.129883
-0.197693
-0.207581
-0.178345
-0.13226300000000002
-0.0871582
-0.0524902
-0.0333862
-0.0286255
-0.0324707
-0.0391235
-0.0446167
-0.0473022
-0.0470581
-0.0452881
-0.0427246
-0.0400391
-0.0384521
-0.036438
-0.034118699999999995
-0.0322876
-0.0311279
-0.0300903
-0.0286255
-0.0268555
-0.0247192
-0.0228882
-0.0206909
-0.019043
-0.016479499999999998
-0.0146484
-0.013305700000000002
-0.012207
-0.0109863
-0.00927734
-0.00628662
-0.00134277
0.00378418
0.00793457
0.0112305
0.0136719
0.015930200000000002
0.0202637
0.0262451
0.0328369
0.0397339
0.0456543
0.0525513
0.0586548
0.0656738
0.072937
0.0808716
0.0891724
0.0978394
0.106506
0.11676
0.128113
0.140198
0.151978
0.160828
0.167664
0.172791
0.17804
0.1828
0.186707
0.188354
0.185974
0.179688
0.170471
0.15918
0.144958
0.127136
0.106934
0.085022
0.06152340000000001
0.0379028
0.0157471
-0.00408936
-0.0198364
-0.0319214
-0.041687
-0.0502319
-0.0575562
-0.0636597
-0.0682983
-0.0704956
-0.07128910000000001
-0.07208250000000001
-0.0723877
-0.0736694
-0.07617189999999999
-0.0794067
-0.08117680000000001
-0.08032230000000001
-0.0773926
-0.0742188
-0.0721436
-0.0716553
-0.07269289999999999
-0.0735474
-0.07391360000000001
-0.0731812
-0.0719604
-0.07073969999999999
-0.0699463
-0.0699463
-0.0704956
-0.0715942
-0.0717163
-0.0715942
-0.06988530000000001
-0.06738279999999999
-0.06610110000000001
-0.06689450000000001
-0.0686646
-0.069397
-0.0687866
-0.0665283
-0.06311040000000001
-0.060424800000000015
-0.0588989
-0.0593262
-0.0603638
-0.0617065
-0.06292719999999999
-0.0635986
-0.0628662
-0.0610962
-0.0587769
-0.05688480000000001
-0.0558472
-0.056762699999999985
-0.05896000000000001
-0.0609131
-0.062439
-0.0617065
-0.0598145
-0.0574341
-0.0559082
-0.055419900000000015
-0.0552368
-0.0565186
-0.0571289
-0.0578613
-0.0587769
-0.0600586
-0.0612183
-0.0613403
-0.0606689
-0.0596924
-0.0597534
-0.0623169
-0.0643311
-0.06414790000000001
-0.0615845
-0.0586548
-0.0570679
-0.0574951
-0.0597534
-0.0615845
-0.06213380000000001
-0.0621948
-0.0619507
-0.0622559
-0.0622559
-0.0614624
-0.0618286
-0.0636597
-0.06622310000000001
-0.0689697
-0.0701294
-0.0700073
-0.06842039999999999
-0.06762699999999999
-0.0686646
-0.0697632
-0.0709229
-0.0706177
-0.06817630000000001
-0.0657349
-0.06530760000000001
-0.0656738
-0.0670776
-0.0686035
-0.0689697
-0.06854249999999999
-0.0669556
-0.0656128
-0.0650024
-0.06530760000000001
-0.0668335
-0.0682983
-0.06854249999999999
-0.0678711
-0.06622310000000001
-0.0650635
-0.0650635
-0.0647583
-0.0643311
-0.0634766
-0.0622559
-0.060546900000000015
-0.0599976
-0.0603638
-0.0614624
-0.06323240000000001
-0.0651245
-0.0658569
-0.06469730000000001
-0.0628052
-0.0599976
-0.057312
-0.057251
-0.0578613
-0.05792240000000001
-0.0563965
-0.0544434
-0.0530396
-0.0531006
-0.0544434
-0.055542
-0.0559082
-0.055542
-0.05505369999999999
-0.0546875
-0.053710900000000006
-0.0523682
-0.050415
-0.0491943
-0.0493774
-0.050354
-0.0508423
-0.0509644
-0.049682599999999986
-0.0487061
-0.0477905
-0.0466309
-0.0457153
-0.0444946
-0.0429688
-0.041870099999999986
-0.0411987
-0.0394287
-0.0360718
-0.0304565
-0.024108900000000003
-0.0183105
-0.011657700000000002
-0.00500488
0.00146484
0.00750732
0.0120239
0.0137939
0.0125732
0.0098877
0.0055542000000000005
0.00177002
-0.000183105
-0.00195312
-0.00634766
-0.0149536
-0.027648900000000004
-0.0401611
-0.049133300000000005
-0.0518799
-0.049682599999999986
-0.0465698
-0.0457153
-0.046875
-0.050354
-0.0536499
-0.055603
-0.055481
-0.05432130000000001
-0.0536499
-0.053894
-0.0544434
-0.053772
-0.0519409
-0.0501709
-0.050293
-0.051696800000000015
-0.0524902
-0.0480347
-0.0319824
0.003479
0.0612793
0.14013699999999998
0.235962
0.336426
0.416443
0.441956
0.393677
0.270935
0.110779
-0.034179699999999986
-0.12793
-0.158691
-0.141235
-0.101318
-0.0601807
-0.0290527
-0.0115356
-0.00561523
-0.00762939
-0.0115967
-0.0146484
-0.0153809
-0.015441899999999996
-0.0150757
-0.0146484
-0.0145874
-0.0146484
-0.014221200000000003
-0.0124512
-0.00921631
-0.00512695
-0.000915527
0.00195312
0.00311279
0.00335693
0.00305176
0.00360107
0.00543213
0.00842285
0.0119629
0.0152588
0.016601599999999998
0.0187378
0.0205688
0.0227051
0.026062
0.0292969
0.0320435
0.034789999999999995
0.0387573
0.043335000000000005
0.0477905
0.0522461
0.056640599999999985
0.0610352
0.0656128
0.07135010000000001
0.0772095
0.0848389
0.0933228
0.101685
0.110168
0.118347
0.125854
0.13385
0.142822
0.152344
0.162354
0.172058
0.180786
0.188293
0.194153
0.197876
0.200745
0.202576
0.202393
0.199097
0.193237
0.184326
0.17346199999999998
0.160339
0.14514200000000002
0.12731900000000002
0.108337
0.0880127
0.06726069999999999
0.048584
0.0328369
0.0189209
0.00714111
-0.00317383
-0.0114136
-0.016601599999999998
-0.0187988
-0.0197144
-0.0203857
-0.0219116
-0.0247192
-0.02771
-0.0297241
-0.0302734
-0.029480000000000006
-0.02771
-0.026367200000000004
-0.0253296
-0.025817900000000005
-0.0264282
-0.0266113
-0.026123
-0.0250854
-0.0244141
-0.0234375
-0.0221558
-0.0204468
-0.0187988
-0.0181274
-0.0189209
-0.0197754
-0.0199585
-0.0200195
-0.0201416
-0.0189209
-0.0161743
-0.0136719
-0.010376
-0.00933838
-0.0107422
-0.0130615
-0.0144043
-0.0139771
-0.0129395
-0.0123901
-0.0115967
-0.0115356
-0.0113525
-0.0098877
-0.00836182
-0.00622559
-0.00488281
-0.00561523
-0.00756836
-0.00927734
-0.0102539
-0.00970459
-0.0078125
-0.00512695
-0.003479
-0.00311279
-0.004516600000000001
-0.00640869
-0.00769043
-0.00817871
-0.00775146
-0.00738525
-0.00744629
-0.00860596
-0.00921631
-0.00830078
-0.00701904
-0.00512695
-0.00463867
-0.00506592
-0.00585938
-0.00622559
-0.00738525
-0.00854492
-0.00909424
-0.00933838
-0.00878906
-0.00805664
-0.00708008
-0.00683594
-0.00726318
-0.00842285
-0.00970459
-0.0109863
-0.012146
-0.012756299999999998
-0.0131226
-0.0133667
-0.0136719
-0.0142822
-0.014892600000000002
-0.015625
-0.016052200000000003
-0.0175171
-0.0184326
-0.019104
-0.0180054
-0.0169067
-0.0159912
-0.0162964
-0.0175171
-0.019104
-0.0201416
-0.0197144
-0.0186157
-0.018066400000000003
-0.017211900000000002
-0.016601599999999998
-0.0164185
-0.0164185
-0.0172729
-0.0183716
-0.0184326
-0.018066400000000003
-0.016601599999999998
-0.0155029
-0.014221200000000003
-0.0134277
-0.013855
-0.0143433
-0.0150146
-0.0149536
-0.0145874
-0.0141602
-0.0139771
-0.014526400000000004
-0.014526400000000004
-0.0144653
-0.0139771
-0.012756299999999998
-0.0134888
-0.013855
-0.014221200000000003
-0.0133667
-0.0119019
-0.0115356
-0.0113525
-0.0115967
-0.0119629
-0.0118408
-0.0113525
-0.0101318
-0.00946045
-0.00866699
-0.00897217
-0.00970459
-0.00994873
-0.0100708
-0.00976562
-0.00836182
-0.00701904
-0.00610352
-0.00585938
-0.00653076
-0.00817871
-0.00933838
-0.00952148
-0.0088501
-0.00793457
-0.00817871
-0.00854492
-0.00848389
-0.00811768
-0.00720215
-0.00689697
-0.00671387
-0.00640869
-0.00610352
-0.00585938
-0.00616455
-0.005737300000000001
-0.00512695
-0.00427246
-0.00378418
-0.0032959000000000005
-0.00311279
-0.00323486
-0.00372314
-0.00360107
-0.00268555
-0.00231934
-0.00195312
-0.00286865
-0.00390625
-0.00476074
-0.00543213
-0.00463867
-0.003479
-0.00256348
-0.00213623
-0.00189209
-0.00158691
-0.0012207
-0.00115967
-0.00128174
-0.0020752
-0.00219727
-0.0020752
-0.00115967
0.000488281
0.00183105
0.00268555
0.00262451
0.00231934
0.00152588
0.000366211
0.000183105
0.000976562
0.0022583000000000004
0.00292969
0.00201416
0.000244141
-0.000915527
-0.000366211
0.00140381
0.003479
0.00457764
0.00506592
0.00482178
0.00463867
0.00384521
0.00354004
0.00341797
0.003479
0.00372314
0.0043335
0.00213623
0.000976562
0.00128174
0.00354004
0.00701904
0.00952148
0.0101318
0.00866699
0.00756836
0.00732422
0.00836182
0.009033200000000002
0.00946045
0.009033200000000002
0.00823975
0.00793457
0.0078125
0.00756836
0.00775146
0.00762939
0.00805664
0.00848389
0.00872803
0.00927734
0.010681200000000002
0.0115356
0.0126343
0.012756299999999998
0.0129395
0.0128784
0.013183600000000002
0.0145874
0.016662599999999996
0.0188599
0.0213013
0.0239258
0.026916500000000003
0.0307007
0.0356445
0.0432129
0.0514526
0.0591431
0.064209
0.0668335
0.06671139999999999
0.0647583
0.0617065
0.0584717
0.055419900000000015
0.0514526
0.0458374
0.038147
0.0283813
0.0181885
0.00744629
-0.0012207
-0.00579834
-0.00585938
-0.00311279
-0.000183105
0.000427246
-0.00115967
-0.00335693
-0.00531006
-0.00561523
-0.00518799
-0.00476074
-0.00396729
-0.00317383
-0.00256348
-0.00280762
-0.00354004
-0.0032959000000000005
0.00628662
0.0352173
0.0899658
0.17138699999999998
0.27594
0.392517
0.49707
0.5578
0.545166
0.44989
0.292786
0.12738
-0.00128174
-0.0682373
-0.07623289999999999
-0.0484009
-0.00915527
0.024108900000000003
0.044067400000000014
0.049682599999999986
0.0457153
0.0385132
0.0333862
0.032226599999999994
0.0334473
0.0360107
0.0380249
0.0394897
0.0408936
0.0436401
0.0462646
0.0481567
0.0490112
0.0497437
0.0509033
0.052795400000000006
0.053833000000000006
0.055542
0.057678199999999985
0.0591431
0.0600586
0.060546900000000015
0.0610962
0.06164550000000001
0.0634766
0.0662842
0.0695801
0.07324220000000001
0.07653810000000001
0.0783691
0.0797729
0.0809937
0.083313
0.08789060000000001
0.0936279
0.100647
0.106812
0.11138900000000003
0.115845
0.121094
0.12646500000000002
0.13256800000000002
0.13830599999999998
0.144592
0.15155
0.159424
0.167725
0.17687999999999998
0.186951
0.19751
0.20813
0.217407
0.22467
0.229431
0.232422
0.234436
0.235657
0.236084
0.236328
0.23590100000000006
0.233215
0.227417
0.218445
0.206909
0.192261
0.174927
0.155579
0.135742
0.117676
0.101013
0.0861206
0.072876
0.0613403
0.0514526
0.0432739
0.036438
0.031860400000000004
0.028869599999999995
0.0270996
0.0257568
0.0236816
0.0213623
0.0200806
0.0196533
0.0209961
0.0221558
0.0217285
0.0200806
0.0198364
0.0213013
0.0235596
0.026062
0.027832
0.0278931
0.0270386
0.0270996
0.0278931
0.0296631
0.0317993
0.0335693
0.0343018
0.034362800000000006
0.0350342
0.0350342
0.0346069
0.0338745
0.0333862
0.032653800000000004
0.0337524
0.036438
0.0400391
0.0430298
0.0444336
0.0443726
0.0424194
0.0397949
0.0378418
0.0379639
0.0393066
0.0401611
0.0389404
0.036438
0.0336914
0.0332642
0.0345459
0.0365601
0.0374756
0.0369263
0.036254900000000014
0.0349731
0.0342407
0.0339355
0.0335693
0.0324707
0.030761700000000006
0.0307007
0.031860400000000004
0.034789999999999995
0.0383911
0.039856
0.038147
0.034789999999999995
0.0316772
0.0302734
0.0302734
0.0308838
0.0313721
0.031616200000000004
0.0309448
0.0294189
0.0280762
0.027832
0.0287476
0.0299683
0.03125
0.031189
0.0300903
0.0288086
0.0273438
0.0275879
0.0281372
0.0281372
0.0264893
0.024231
0.0214844
0.0201416
0.0200195
0.0203857
0.0213623
0.0217896
0.021667500000000003
0.0216064
0.0223389
0.023193400000000003
0.024108900000000003
0.0241699
0.022522
0.0211182
0.0197144
0.018981900000000003
0.0194702
0.019104
0.0183716
0.017334
0.018066400000000003
0.0200806
0.0213623
0.0209961
0.0197754
0.0182495
0.0179443
0.0186157
0.0200195
0.020813
0.0206299
0.0192261
0.0183105
0.018066400000000003
0.0182495
0.019104
0.018981900000000003
0.019165
0.0197144
0.0201416
0.0198364
0.0194092
0.0181885
0.016601599999999998
0.015808100000000002
0.0158691
0.0162964
0.017028799999999997
0.017761199999999998
0.0178833
0.0186157
0.019165
0.0196533
0.018981900000000003
0.0184326
0.017394999999999997
0.0167847
0.0171509
0.0186157
0.0205688
0.0218506
0.022583
0.0222778
0.0215454
0.0210571
0.020874
0.0210571
0.0202026
0.0198364
0.0197754
0.0206909
0.0219116
0.0224609
0.0217285
0.0209351
0.0204468
0.0205688
0.0203247
0.0200195
0.0210571
0.0228271
0.0245972
0.025634800000000003
0.0255127
0.0252075
0.0247192
0.0246582
0.024108900000000003
0.0238037
0.0239258
0.0245972
0.025634800000000003
0.0259399
0.0266113
0.0267334
0.0270996
0.0280151
0.0280151
0.0274048
0.0275879
0.028198200000000007
0.027771
0.0280151
0.0283813
0.0283813
0.0290527
0.0307007
0.031066900000000005
0.0308228
0.030334500000000007
0.0286255
0.027648900000000004
0.02771
0.028869599999999995
0.030212400000000007
0.0308838
0.031616200000000004
0.031066900000000005
0.0302734
0.029541
0.0296021
0.0297241
0.029480000000000006
0.0286255
0.0283203
0.0283813
0.0285645
0.0289917
0.0297241
0.029480000000000006
0.028442400000000007
0.0265503
0.0244751
0.022949200000000003
0.0230103
0.0252686
0.0285034
0.032714799999999995
0.0369263
0.0397339
0.041687
0.0429688
0.043335000000000005
0.0435791
0.045043900000000005
0.0495605
0.05694580000000001
0.0657349
0.0750122
0.0825806
0.08673099999999999
0.0882568
0.08697510000000001
0.0841064
0.0829468
0.08227539999999997
0.0808716
0.0755005
0.0650635
0.049255400000000005
0.0321655
0.0187378
0.0124512
0.0123291
0.0150757
0.017761199999999998
0.0180054
0.0180054
0.0181274
0.0198975
0.0217285
0.0215454
0.0202026
0.0172729
0.016662599999999996
0.0178833
0.0192871
0.0200806
0.0187988
0.0155029
0.0142822
0.020813
0.0462646
0.0978394
0.175293
0.275513
0.390076
0.49884
0.5717770000000001
0.574585
0.492615
0.338501
0.163269
0.0178223
-0.06530760000000001
-0.0834961
-0.057373
-0.0145874
0.0244141
0.0499268
0.0592651
0.0558472
0.0480347
0.0421143
0.041320800000000005
0.043945300000000014
0.0479736
0.050415
0.052063
0.0532227
0.053955099999999985
0.0545044
0.05505369999999999
0.0547485
0.0544434
0.0551758
0.0570068
0.05896000000000001
0.0603638
0.0610962
0.06164550000000001
0.0622559
0.0640869
0.06622310000000001
0.0684814
0.07110599999999999
0.0734863
0.0751343
0.07745360000000001
0.07910160000000001
0.0804443
0.0823975
0.0856323
0.08959960000000003
0.0942383
0.0986328
0.103088
0.107666
0.112122
0.116882
0.121521
0.12738
0.134033
0.141052
0.148804
0.157288
0.165894
0.175049
0.184937
0.195679
0.206604
0.217285
0.226379
0.233887
0.241211
0.247864
0.25238
0.25531
0.25592
0.2547
0.252075
0.247742
0.241211
0.231934
0.219421
0.204285
0.186768
0.167175
0.146301
0.125366
0.10583499999999997
0.0886841
0.0735474
0.0598755
0.0482788
0.0390015
0.031616200000000004
0.0265503
0.0227051
0.0201416
0.0175781
0.015686000000000002
0.0144043
0.0134888
0.0128174
0.012085
0.0115967
0.0111694
0.0118408
0.0134888
0.0135498
0.013305700000000002
0.0130615
0.0128784
0.0136719
0.0152588
0.0161743
0.016723599999999998
0.016845699999999998
0.0162964
0.015441899999999996
0.0143433
0.0145874
0.0164185
0.0188599
0.0209961
0.0215454
0.0193481
0.0158691
0.0142822
0.0144653
0.0164185
0.0214233
0.0248413
0.026367200000000004
0.0262451
0.0261841
0.0259399
0.0249023
0.0239868
0.0236206
0.0234375
0.0227661
0.0216064
0.0202026
0.0195923
0.0198364
0.0200195
0.018981900000000003
0.0170898
0.015808100000000002
0.0158691
0.016601599999999998
0.016967799999999998
0.016845699999999998
0.0152588
0.0140381
0.014221200000000003
0.0143433
0.0143433
0.0134277
0.0129395
0.012756299999999998
0.0129395
0.0126953
0.011779799999999998
0.0100098
0.00805664
0.00683594
0.00653076
0.00671387
0.00531006
0.00415039
0.00305176
0.00317383
0.00463867
0.00500488
0.00323486
0.00134277
-0.000671387
-0.000671387
0.000244141
0.00134277
0.00152588
0.000610352
6.10352e-05
-0.000488281
-0.000915527
-0.00238037
-0.00427246
-0.00567627
-0.00610352
-0.00604248
-0.00653076
-0.00714111
-0.00695801
-0.00738525
-0.00738525
-0.00738525
-0.00732422
-0.0067749
-0.00561523
-0.00610352
-0.00738525
-0.00958252
-0.0115967
-0.012207
-0.0125732
-0.0119629
-0.0112915
-0.0101929
-0.00860596
-0.00750732
-0.00805664
-0.00860596
-0.00866699
-0.00921631
-0.00891113
-0.00952148
-0.00982666
-0.0100098
-0.0101929
-0.0106201
-0.0105591
-0.00970459
-0.00946045
-0.00921631
-0.00994873
-0.0115967
-0.0128174
-0.014221200000000003
-0.0157471
-0.017028799999999997
-0.0175171
-0.0167847
-0.0153809
-0.0122681
-0.00939941
-0.00872803
-0.0088501
-0.0100098
-0.0109863
-0.012207
-0.013855
-0.0159912
-0.017394999999999997
-0.0174561
-0.0169067
-0.016052200000000003
-0.015563999999999996
-0.016113299999999997
-0.0169067
-0.0178833
-0.0184937
-0.0183105
-0.0175171
-0.0157471
-0.014221200000000003
-0.014099100000000003
-0.015441899999999996
-0.018981900000000003
-0.022583
-0.0239258
-0.0228882
-0.0202026
-0.017028799999999997
-0.0146484
-0.015319799999999996
-0.016967799999999998
-0.0194702
-0.0214844
-0.0222168
-0.0210571
-0.018981900000000003
-0.0175171
-0.0171509
-0.0180054
-0.019043
-0.0203247
-0.0202637
-0.0183716
-0.016113299999999997
-0.0130615
-0.0103149
-0.00805664
-0.0067749
-0.00274658
0.00335693
0.0113525
0.0205688
0.0286865
0.034179699999999986
0.0354004
0.0339966
0.0317993
0.0303955
0.028869599999999995
0.026062
0.0197754
0.00799561
-0.00762939
-0.024231
-0.0378418
-0.0445557
-0.0445557
-0.0405273
-0.036438
-0.0342407
-0.0342407
-0.0360718
-0.0378418
-0.0384521
-0.0394897
-0.0407715
-0.0425415
-0.0432739
-0.0419312
-0.0402832
-0.0389404
-0.0385132
-0.0397339
-0.0424194
-0.043457
-0.037231400000000005
-0.0146484
0.0308228
0.102112
0.194519
0.299072
0.398193
0.460327
0.454956
0.370361
0.219116
0.0496216
-0.0891113
-0.16583299999999998
-0.17926
-0.149353
-0.100525
-0.0529785
-0.0182495
-0.00128174
0.000549316
-0.00628662
-0.0147705
-0.0198975
-0.0209961
-0.0188599
-0.0149536
-0.0115356
-0.00915527
-0.00793457
-0.00750732
-0.00738525
-0.00695801
-0.00610352
-0.00384521
-0.00134277
0.000244141
0.00146484
0.00311279
0.00610352
0.0108032
0.0155029
0.019043
0.0212402
0.0213013
0.0213623
0.0223389
0.0245972
0.0288086
0.0334473
0.0374146
0.041137699999999985
0.0444946
0.049133300000000005
0.0543823
0.0585327
0.0625
0.06579589999999999
0.0701904
0.0770264
0.085022
0.0921021
0.0985107
0.105774
0.113586
0.123657
0.134033
0.144226
0.154724
0.165161
0.176147
0.186768
0.19574
0.204712
0.212463
0.218506
0.221985
0.222351
0.218872
0.212036
0.204102
0.19397
0.181091
0.16534400000000002
0.146423
0.125122
0.102234
0.0793457
0.0571899
0.0366821
0.018066400000000003
0.00274658
-0.00994873
-0.0199585
-0.0273438
-0.0335693
-0.0374146
-0.0400391
-0.0422974
-0.045043900000000005
-0.0471191
-0.0479736
-0.0482788
-0.0482788
-0.0487061
-0.0488892
-0.0490112
-0.0487061
-0.0482788
-0.0484009
-0.0480957
-0.0474243
-0.0465088
-0.0448608
-0.0435181
-0.0435791
-0.0442505
-0.045166000000000005
-0.0455933
-0.0455933
-0.0445557
-0.0430298
-0.041626
-0.0411987
-0.041870099999999986
-0.0430298
-0.043396
-0.0426025
-0.0410767
-0.039978
-0.0387573
-0.038208
-0.0383911
-0.0385132
-0.038147
-0.0371094
-0.036438
-0.036132800000000014
-0.0375366
-0.0391235
-0.0395508
-0.0393677
-0.0375977
-0.036499
-0.0367432
-0.0387573
-0.0402222
-0.040405300000000005
-0.0392456
-0.038085900000000006
-0.0371704
-0.0369263
-0.0378418
-0.0384521
-0.0388184
-0.0389404
-0.0392456
-0.0396118
-0.0411987
-0.0423584
-0.0425415
-0.0419312
-0.0407715
-0.0393677
-0.038208
-0.038085900000000006
-0.0388184
-0.039856
-0.0407715
-0.041992199999999986
-0.0428467
-0.0432739
-0.0435181
-0.044067400000000014
-0.0457764
-0.046936
-0.0470581
-0.045105
-0.0428467
-0.041687
-0.0429077
-0.0457153
-0.0483398
-0.0500488
-0.0501709
-0.0490723
-0.048645
-0.0487061
-0.0485229
-0.0484009
-0.0490723
-0.050415
-0.0507812
-0.050293
-0.0490723
-0.046814
-0.045898400000000006
-0.0463257
-0.0476685
-0.049255400000000005
-0.050415
-0.0506592
-0.0510254
-0.0522461
-0.053894
-0.0545654
-0.053955099999999985
-0.0519409
-0.0494385
-0.0473633
-0.0455933
-0.044799800000000015
-0.0454712
-0.0466919
-0.0485229
-0.0497437
-0.049255400000000005
-0.0479736
-0.0463867
-0.0444336
-0.0420532
-0.0393677
-0.0363159
-0.034423800000000004
-0.0332031
-0.0319214
-0.0286865
-0.022949200000000003
-0.015441899999999996
-0.00653076
0.00158691
0.00769043
0.0103149
0.0100708
0.00848389
0.0055542000000000005
0.00311279
-0.000305176
-0.00396729
-0.0115967
-0.024292
-0.039978
-0.0551758
-0.064209
-0.0656128
-0.0618286
-0.0565796
-0.0540771
-0.053955099999999985
-0.0560303
-0.05694580000000001
-0.0580444
-0.0583496
-0.0587769
-0.0597534
-0.0611572
-0.0613403
-0.0611572
-0.0601196
-0.0581055
-0.0565186
-0.056457500000000015
-0.0581665
-0.0594482
-0.054992700000000005
-0.036193800000000005
0.0055542000000000005
0.0717773
0.15826400000000002
0.255432
0.34570300000000004
0.398865
0.388062
0.305237
0.162903
0.0101318
-0.110046
-0.173706
-0.182617
-0.156006
-0.113647
-0.071167
-0.0388184
-0.0209961
-0.016479499999999998
-0.0201416
-0.0255737
-0.029541
-0.03125
-0.0314941
-0.0309448
-0.029541
-0.0274048
-0.024353
-0.0217285
-0.0200195
-0.019043
-0.0180054
-0.0158691
-0.0129395
-0.0103149
-0.00866699
-0.0078125
-0.00738525
-0.00689697
-0.00579834
-0.00415039
-0.00152588
0.00201416
0.00683594
0.011779799999999998
0.0153809
0.017028799999999997
0.0188599
0.0202637
0.0228882
0.0269775
0.0324097
0.0383911
0.043335000000000005
0.0478516
0.053710900000000006
0.05896000000000001
0.06463619999999999
0.06988530000000001
0.0748901
0.081665
0.0901489
0.0999146
0.110535
0.12085
0.131104
0.141296
0.15124500000000002
0.161011
0.17138699999999998
0.180298
0.187439
0.19281
0.196289
0.19751
0.19696
0.194519
0.190369
0.182922
0.173096
0.159363
0.140442
0.118042
0.0932617
0.0701904
0.0494385
0.031189
0.0153809
6.10352e-05
-0.0133667
-0.0254517
-0.034729
-0.041137699999999985
-0.0456543
-0.0480347
-0.0501709
-0.0524902
-0.0541992
-0.055481
-0.057678199999999985
-0.0594482
-0.0596313
-0.0587769
-0.0562134
-0.0528564
-0.0514526
-0.0510254
-0.0521851
-0.0531616
-0.0532227
-0.052612300000000015
-0.052063
-0.052002
-0.0523071
-0.0515747
-0.0513306
-0.050354
-0.049804699999999986
-0.0490723
-0.0481567
-0.0476685
-0.0475464
-0.0475464
-0.0476685
-0.0477905
-0.0475464
-0.0471191
-0.0457153
-0.0443115
-0.0435181
-0.0429077
-0.0424194
-0.042175300000000006
-0.041626
-0.041870099999999986
-0.0427246
-0.0438843
-0.0443115
-0.0435791
-0.0412598
-0.0396118
-0.0392456
-0.0391846
-0.0385132
-0.0368652
-0.0356445
-0.0356445
-0.0366821
-0.038085900000000006
-0.0387573
-0.0388184
-0.0388794
-0.0390625
-0.0394287
-0.039856
-0.0391846
-0.038269
-0.038208
-0.0390015
-0.0396729
-0.0408936
-0.041442900000000005
-0.041748
-0.0423584
-0.0426025
-0.041992199999999986
-0.041320800000000005
-0.0406494
-0.0404663
-0.0411987
-0.0424805
-0.0438232
-0.0444336
-0.0443115
-0.0447388
-0.0454712
-0.0459595
-0.0457153
-0.045043900000000005
-0.0441895
-0.0441284
-0.0441895
-0.0446167
-0.0459595
-0.0471191
-0.0482788
-0.0480957
-0.0467529
-0.0457153
-0.0459595
-0.0473022
-0.048950199999999985
-0.0497437
-0.0494385
-0.0477905
-0.0466919
-0.0465698
-0.0463257
-0.0469971
-0.0474243
-0.0473022
-0.046875
-0.0461426
-0.044799800000000015
-0.044006300000000005
-0.0441284
-0.0446777
-0.0449219
-0.044067400000000014
-0.041442900000000005
-0.0371704
-0.0321655
-0.0286255
-0.0259399
-0.024292
-0.023193400000000003
-0.0213013
-0.0175171
-0.011718799999999998
-0.00335693
0.00622559
0.0145874
0.019104
0.0195923
0.016052200000000003
0.0119019
0.00970459
0.00982666
0.010376
0.00927734
0.00213623
-0.0102539
-0.025634800000000003
-0.039856
-0.048645
-0.0509644
-0.0484619
-0.044067400000000014
-0.039978
-0.0383911
-0.0387573
-0.0407715
-0.0429077
-0.0436401
-0.0422363
-0.0407104
-0.0397949
-0.0385132
-0.0372925
-0.0367432
-0.0358887
-0.0349121
-0.034179699999999986
-0.034057599999999986
-0.033630400000000005
-0.028869599999999995
-0.012085
0.0247192
0.0854492
0.170227
0.272217
0.374878
0.447327
0.457031
0.389465
0.25311300000000003
0.0930176
-0.041992199999999986
-0.122253
-0.142273
-0.1203
-0.0804443
-0.0403442
-0.010498
0.00494385
0.00805664
0.00390625
-0.00128174
-0.00537109
-0.00616455
-0.00421143
-0.000915527
0.00262451
0.00598145
0.00793457
0.00891113
0.00921631
0.00909424
0.00958252
0.0105591
0.011718799999999998
0.0129395
0.014892600000000002
0.017394999999999997
0.0205688
0.0230713
0.0246582
0.026123
0.0280151
0.0298462
0.031555200000000005
0.0343018
0.0374756
0.041320800000000005
0.045166000000000005
0.049133300000000005
0.052734400000000015
0.056457500000000015
0.0599365
0.06329349999999999
0.0669556
0.0715942
0.07733150000000001
0.08300779999999999
0.0892944
0.09552
0.103088
0.111145
0.11969
0.127808
0.135132
0.1427
0.151306
0.161011
0.170715
0.179749
0.188171
0.196472
0.203918
0.210144
0.215088
0.217468
0.217651
0.216064
0.211731
0.20575
0.197388
0.186096
0.171875
0.155701
0.13684100000000002
0.116272
0.0951538
0.0751343
0.0580444
0.0444336
0.0331421
0.0249634
0.0180054
0.0115356
0.00537109
0.000305176
-0.00244141
-0.00341797
-0.00292969
-0.00244141
-0.00268555
-0.00354004
-0.00482178
-0.00567627
-0.00531006
-0.0043335
-0.00244141
0.000366211
0.00256348
0.00396729
0.004516600000000001
0.00408936
0.004516600000000001
0.00549316
0.00610352
0.00646973
0.00714111
0.00842285
0.0106201
0.0119629
0.0131226
0.013305700000000002
0.0125122
0.0123901
0.012756299999999998
0.0137939
0.015441899999999996
0.015930200000000002
0.016357399999999998
0.0171509
0.0182495
0.018981900000000003
0.0199585
0.0209351
0.0217285
0.023193400000000003
0.023315400000000003
0.0234985
0.0230713
0.021667500000000003
0.0202026
0.0186768
0.0186768
0.0186157
0.0195923
0.0195923
0.0187988
0.0181274
0.0178223
0.0187988
0.0203247
0.0201416
0.0194702
0.0186768
0.0186157
0.0195312
0.0202026
0.020813
0.0203247
0.0187988
0.0187378
0.0187988
0.0195312
0.0203857
0.0187988
0.016601599999999998
0.015197799999999997
0.0150757
0.015930200000000002
0.016479499999999998
0.016357399999999998
0.0159912
0.015625
0.0150757
0.0143433
0.0123291
0.011657700000000002
0.0111694
0.011779799999999998
0.0128784
0.013916
0.0133667
0.0124512
0.0115356
0.0108032
0.00994873
0.00933838
0.00921631
0.00830078
0.00756836
0.00775146
0.00848389
0.010376
0.012207
0.0126343
0.0128784
0.0125732
0.012146
0.012207
0.0124512
0.0128174
0.013305700000000002
0.0125732
0.0110474
0.00994873
0.0100708
0.010437
0.0123901
0.0142822
0.0151367
0.0151367
0.0144653
0.0144043
0.0148315
0.015319799999999996
0.0151367
0.0144653
0.0142822
0.014526400000000004
0.015563999999999996
0.016479499999999998
0.016479499999999998
0.015319799999999996
0.0143433
0.014526400000000004
0.015197799999999997
0.0164185
0.016601599999999998
0.0159912
0.0162964
0.0182495
0.0211182
0.0231323
0.0237427
0.0228271
0.0205078
0.019043
0.018981900000000003
0.0194092
0.0203857
0.0205078
0.0211182
0.0222778
0.022949200000000003
0.023864700000000003
0.0249634
0.026367200000000004
0.0271606
0.0274048
0.0268555
0.0251465
0.0235596
0.022033700000000003
0.020752
0.0206299
0.0215454
0.0234375
0.0259399
0.0283813
0.0305176
0.030761700000000006
0.0304565
0.0293579
0.0288086
0.0280762
0.0275879
0.027771
0.0283203
0.0285034
0.0280151
0.0274658
0.0274658
0.028198200000000007
0.0300903
0.031066900000000005
0.03125
0.0305786
0.0304565
0.0303955
0.0309448
0.031555200000000005
0.0314331
0.031555200000000005
0.0320435
0.032714799999999995
0.0332642
0.0334473
0.032531700000000004
0.03125
0.0301514
0.0298462
0.031066900000000005
0.0331421
0.0348511
0.0350952
0.034118699999999995
0.033081099999999995
0.0331421
0.0346069
0.037353500000000005
0.0391846
0.0397949
0.0389404
0.0371094
0.036132800000000014
0.0365601
0.036987300000000015
0.0375977
0.0375366
0.0366211
0.0354004
0.0344849
0.0343018
0.0348511
0.0353394
0.0357666
0.036499
0.0377808
0.0383301
0.0379639
0.0377808
0.037231400000000005
0.0368042
0.0366211
0.037353500000000005
0.0384521
0.0391235
0.0393677
0.0387573
0.0383911
0.0385742
0.0389404
0.0392456
0.0389404
0.0391235
0.0395508
0.0405273
0.041626
0.0415649
0.0406494
0.0396729
0.0383911
0.0383301
0.0385132
0.0391235
0.0410156
0.041992199999999986
0.0420532
0.0409546
0.0395508
0.039856
0.041992199999999986
0.0446167
0.0484619
0.052795400000000006
0.0580444
0.0629883
0.06842039999999999
0.07403560000000001
0.08026119999999999
0.0872803
0.0938721
0.0982056
0.0994263
0.09741210000000003
0.09375
0.09021
0.0873413
0.0847778
0.0814819
0.0756836
0.06726069999999999
0.0558472
0.044006300000000005
0.0344849
0.0288086
0.0275879
0.0296631
0.0328979
0.0358887
0.0371704
0.0366211
0.0349731
0.0342407
0.034423800000000004
0.0354004
0.0357666
0.0354004
0.034423800000000004
0.0325928
0.0300293
0.0287476
0.033508300000000005
0.0544434
0.100708
0.174377
0.273804
0.389954
0.502625
0.582825
0.596069
0.526978
0.382385
0.210083
0.061767599999999985
-0.0288086
-0.0549316
-0.0352783
0.0032959000000000005
0.0396118
0.0637207
0.07269289999999999
0.0708008
0.06463619999999999
0.0588379
0.0560303
0.0557861
0.0575562
0.0597534
0.06164550000000001
0.0625
0.0636597
0.0637817
0.06427000000000001
0.0656738
0.06811519999999999
0.0706787
0.07336430000000001
0.0740967
0.0731812
0.0718384
0.071228
0.0727539
0.0758667
0.0790405
0.08233639999999999
0.0839233
0.0859375
0.08843989999999999
0.09002689999999999
0.0922852
0.0953979
0.0980835
0.100891
0.102783
0.104309
0.106628
0.109802
0.114441
0.1203
0.126892
0.13385
0.140442
0.146179
0.151917
0.15863
0.165161
0.173096
0.181824
0.190308
0.197754
0.2052
0.214172
0.224487
0.235474
0.244995
0.251648
0.256104
0.257751
0.257019
0.254883
0.251709
0.248413
0.24408
0.238098
0.229614
0.21698
0.201355
0.183167
0.163452
0.143677
0.12573199999999998
0.110168
0.0978394
0.0859985
0.07446289999999997
0.06518550000000001
0.0585938
0.0551758
0.0542603
0.0532227
0.051147500000000005
0.0493164
0.0477905
0.0466919
0.0449829
0.0432739
0.041442900000000005
0.0407104
0.0415039
0.0429077
0.0443115
0.045898400000000006
0.046875
0.0476685
0.0483398
0.048584
0.0490112
0.050415
0.0515137
0.052917499999999985
0.0536499
0.0541992
0.0540771
0.053955099999999985
0.053894
0.055542
0.0585938
0.0615845
0.0621948
0.0612183
0.0595703
0.057373
0.0567017
0.0570068
0.0577393
0.0588989
0.059082
0.0587158
0.0579834
0.0577393
0.05780030000000001
0.0585327
0.05896000000000001
0.0581055
0.056457500000000015
0.0548096
0.054992700000000005
0.0559082
0.056457500000000015
0.0561523
0.055419900000000015
0.0548706
0.0543823
0.0532837
0.051147500000000005
0.0481567
0.0466919
0.0469971
0.0485229
0.050415
0.0515137
0.0502319
0.0488281
0.048217800000000005
0.0479736
0.0480957
0.0482788
0.0480957
0.0485229
0.048217800000000005
0.0474854
0.046814
0.0463257
0.0464478
0.0457764
0.0449829
0.0435181
0.043396
0.044006300000000005
0.0455933
0.0457153
0.0446167
0.0425415
0.0408325
0.0401001
0.0394897
0.0389404
0.0384521
0.0383911
0.0388794
0.0385742
0.037353500000000005
0.0353394
0.032775900000000004
0.0313721
0.0309448
0.0324707
0.0345459
0.0354004
0.0357666
0.0365601
0.0376587
0.0379639
0.0379028
0.0377197
0.0374146
0.0372925
0.0369263
0.0352173
0.0337524
0.0328369
0.033081099999999995
0.0339966
0.0351562
0.0357666
0.0350342
0.0342407
0.033325199999999985
0.0335693
0.0346069
0.036499
0.0377197
0.0379028
0.036132800000000014
0.033508300000000005
0.0322876
0.0332642
0.034729
0.0357056
0.036254900000000014
0.0352783
0.034668
0.035522500000000005
0.0368652
0.0390015
0.0397339
0.038208
0.0351562
0.032226599999999994
0.0302734
0.029785200000000005
0.0316772
0.0342407
0.0368652
0.0386353
0.0390015
0.0377197
0.036438
0.036193800000000005
0.036254900000000014
0.0371094
0.0374756
0.036987300000000015
0.037231400000000005
0.038208
0.0397339
0.0402832
0.0389404
0.036987300000000015
0.0357666
0.036132800000000014
0.0368652
0.0369263
0.0369263
0.0368652
0.0367432
0.036254900000000014
0.0357666
0.0353394
0.035461400000000004
0.0366211
0.038208
0.0388184
0.0380249
0.0368652
0.0357056
0.0358276
0.036193800000000005
0.0365601
0.0366821
0.0371094
0.0374756
0.0380249
0.038208
0.0374146
0.037231400000000005
0.0370483
0.0368042
0.0371094
0.0372925
0.038085900000000006
0.0385742
0.0388184
0.0385742
0.0377808
0.0369263
0.0374146
0.0378418
0.0374146
0.0366211
0.0357056
0.0358887
0.0363159
0.037353500000000005
0.0388794
0.0401611
0.0405273
0.0397339
0.0384521
0.0371704
0.035949699999999994
0.035461400000000004
0.0357666
0.0375366
0.0400391
0.0412598
0.0410767
0.0396729
0.0379028
0.036193800000000005
0.0357666
0.0351562
0.0350952
0.0372925
0.0413818
0.0467529
0.0525513
0.0570679
0.0608521
0.06616210000000003
0.07336430000000001
0.0806885
0.0866699
0.0915527
0.0938721
0.0944824
0.0925903
0.0889282
0.0847778
0.08105470000000001
0.0772095
0.0715942
0.0629883
0.0509644
0.0386963
0.0281372
0.0214233
0.0188599
0.019043
0.0197144
0.0202026
0.0197144
0.0195923
0.0194092
0.0199585
0.0200806
0.0192871
0.0178223
0.016601599999999998
0.016723599999999998
0.0182495
0.0193481
0.0184326
0.016479499999999998
0.018066400000000003
0.0298462
0.06414790000000001
0.124878
0.211853
0.319763
0.436279
0.538574
0.588684
0.5587770000000001
0.441833
0.268127
0.0966797
-0.0271606
-0.08184810000000001
-0.0769043
-0.0405884
0.00152588
0.0339966
0.051147500000000005
0.0544434
0.050293
0.0444336
0.0400391
0.038147
0.0388184
0.0408936
0.0426636
0.0441895
0.0442505
0.0446167
0.0444946
0.0455933
0.0474243
0.0493164
0.049987800000000006
0.0509033
0.0524902
0.0544434
0.0568237
0.0585938
0.0600586
0.0603638
0.0601196
0.0601807
0.0610962
0.06323240000000001
0.065979
0.0691528
0.0733032
0.07714839999999999
0.08026119999999999
0.0827026
0.0847168
0.08673099999999999
0.09002689999999999
0.0932617
0.0981445
0.103394
0.109924
0.117249
0.123657
0.13092
0.138
0.14593499999999998
0.15478499999999998
0.163635
0.17181400000000002
0.180298
0.190247
0.200623
0.212158
0.223022
0.231445
0.237915
0.242188
0.245239
0.247803
0.250122
0.250305
0.247498
0.241272
0.232788
0.221313
0.206909
0.190552
0.172241
0.152527
0.131165
0.109131
0.088562
0.0715942
0.05792240000000001
0.0463867
0.0358887
0.0252686
0.0170898
0.0112305
0.00720215
0.00610352
0.00604248
0.00561523
0.00561523
0.00469971
0.00305176
0.00134277
-0.000305176
-0.0012207
-0.00140381
-0.000793457
-0.000244141
0.000915527
0.00262451
0.00305176
0.00317383
0.00262451
0.000976562
-0.000244141
-0.000976562
0.00012207
0.00280762
0.005737300000000001
0.00744629
0.00689697
0.00610352
0.00616455
0.00756836
0.0100708
0.0126953
0.014221200000000003
0.014221200000000003
0.0134277
0.0129395
0.0125122
0.011779799999999998
0.0120239
0.012207
0.012207
0.012146
0.0119629
0.0110474
0.010498
0.00946045
0.00720215
0.00592041
0.00567627
0.00518799
0.00408936
0.00372314
0.00366211
0.00500488
0.00653076
0.00671387
0.00592041
0.00439453
0.00311279
0.00134277
-6.10352e-05
-0.00146484
-0.00280762
-0.00317383
-0.00335693
-0.00268555
-0.00213623
-0.0022583000000000004
-0.00305176
-0.00292969
-0.00372314
-0.00463867
-0.00567627
-0.00738525
-0.00872803
-0.00964355
-0.010437
-0.0101929
-0.00970459
-0.00921631
-0.00909424
-0.00921631
-0.00976562
-0.0115356
-0.0135498
-0.0153809
-0.0157471
-0.0153809
-0.0144043
-0.014099100000000003
-0.0146484
-0.0155029
-0.0170898
-0.0177002
-0.0178223
-0.0161743
-0.015197799999999997
-0.015563999999999996
-0.0164185
-0.0184937
-0.0199585
-0.0202026
-0.0199585
-0.0202026
-0.0204468
-0.0214233
-0.0212402
-0.0205688
-0.0195312
-0.0184326
-0.0171509
-0.016235399999999997
-0.0169067
-0.0188599
-0.0205688
-0.0218506
-0.022033700000000003
-0.0211792
-0.019043
-0.017334
-0.0164185
-0.017211900000000002
-0.0182495
-0.0195923
-0.0204468
-0.0209961
-0.0217285
-0.0223389
-0.022399900000000004
-0.0219116
-0.0214233
-0.0206909
-0.0197754
-0.0205078
-0.0223389
-0.022033700000000003
-0.0203247
-0.017761199999999998
-0.0155029
-0.0148315
-0.015808100000000002
-0.0172729
-0.0176392
-0.017028799999999997
-0.0174561
-0.0192261
-0.0221558
-0.0248413
-0.0249023
-0.0232544
-0.0209351
-0.0206909
-0.0214233
-0.0222778
-0.0219727
-0.0205078
-0.0185547
-0.0181274
-0.0183105
-0.0194092
-0.0198364
-0.0199585
-0.0200806
-0.020874
-0.0216064
-0.022583
-0.0233765
-0.0239868
-0.0245972
-0.0249634
-0.0251465
-0.0253296
-0.0253296
-0.024353
-0.022949200000000003
-0.0201416
-0.0157471
-0.00994873
-0.00402832
0.00268555
0.00891113
0.0149536
0.020874
0.0259399
0.0298462
0.0324097
0.031860400000000004
0.0291748
0.0249634
0.0212402
0.0188599
0.015808100000000002
0.00933838
-0.00128174
-0.0145874
-0.0270996
-0.0353394
-0.0389404
-0.0390625
-0.0380249
-0.038085900000000006
-0.0389404
-0.0408325
-0.0424805
-0.043396
-0.0427856
-0.041320800000000005
-0.0396729
-0.0393066
-0.041687
-0.0427856
-0.0425415
-0.0412598
-0.039917
-0.0402222
-0.0424194
-0.041687
-0.0292358
0.00421143
0.0638428
0.147644
0.248352
0.354675
0.44519
0.485596
0.452148
0.336304
0.169495
0.00518799
-0.113525
-0.164368
-0.158081
-0.118774
-0.0708618
-0.0314331
-0.00836182
-0.00115967
-0.0043335
-0.010376
-0.0150146
-0.016967799999999998
-0.016235399999999997
-0.0144043
-0.0112305
-0.00793457
-0.00622559
-0.00634766
-0.00744629
-0.00756836
-0.00665283
-0.00408936
-0.0007324219999999999
0.00219727
0.004516600000000001
0.00506592
0.00494385
0.00592041
0.00769043
0.0103149
0.0126953
0.0144653
0.016052200000000003
0.016601599999999998
0.017761199999999998
0.0202026
0.0239258
0.028442400000000007
0.0328979
0.0366821
0.039856
0.0426636
0.045898400000000006
0.0505981
0.0563965
0.0629883
0.06988530000000001
0.0761108
0.0820312
0.08813480000000001
0.0941162
0.101013
0.109009
0.118408
0.128418
0.13855
0.148315
0.158691
0.167664
0.176636
0.185486
0.193542
0.201904
0.209778
0.215637
0.21820100000000006
0.21600300000000006
0.209229
0.199219
0.186218
0.171326
0.15399200000000002
0.134766
0.114014
0.0905762
0.0662842
0.0430908
0.0230713
0.00866699
-0.00366211
-0.0144043
-0.0234375
-0.0311279
-0.0371094
-0.041320800000000005
-0.045043900000000005
-0.0488281
-0.0512695
-0.0528564
-0.0534668
-0.053894
-0.0548706
-0.0557861
-0.055542
-0.053710900000000006
-0.049804699999999986
-0.0466919
-0.0455322
-0.0461426
-0.0474854
-0.0484619
-0.048217800000000005
-0.046814
-0.0463257
-0.0472412
-0.048217800000000005
-0.0488281
-0.0487061
-0.0473022
-0.0454712
-0.0431519
-0.0411987
-0.0402832
-0.0407104
-0.0421143
-0.0429688
-0.0435791
-0.0423584
-0.041748
-0.0418091
-0.0422363
-0.0427856
-0.043396
-0.0422363
-0.0400391
-0.0386353
-0.038147
-0.0379639
-0.0388794
-0.0402222
-0.0405273
-0.0393677
-0.0374756
-0.0351562
-0.034179699999999986
-0.0349121
-0.0371704
-0.0396729
-0.0407104
-0.039978
-0.0385742
-0.0366821
-0.035522500000000005
-0.0357056
-0.0371094
-0.0403442
-0.0429688
-0.0443726
-0.0432129
-0.0407104
-0.0396118
-0.0401611
-0.041992199999999986
-0.0436401
-0.0454102
-0.0459595
-0.0456543
-0.045043900000000005
-0.0448608
-0.0458374
-0.0473633
-0.0490112
-0.050415
-0.0513916
-0.0515747
-0.051147500000000005
-0.0501099
-0.049987800000000006
-0.0505981
-0.052002
-0.05432130000000001
-0.05694580000000001
-0.0588989
-0.06024169999999999
-0.060424800000000015
-0.060546900000000015
-0.0603638
-0.0601196
-0.0593262
-0.0584106
-0.0574341
-0.0565186
-0.0559082
-0.0559082
-0.05694580000000001
-0.0581665
-0.0595703
-0.0601807
-0.06060790000000001
-0.0603638
-0.0603027
-0.0606689
-0.0618896
-0.0628052
-0.0629883
-0.0614014
-0.0594482
-0.0582886
-0.059021
-0.0609741
-0.06311040000000001
-0.0634155
-0.0618286
-0.0587769
-0.0565186
-0.0571899
-0.0598755
-0.0619507
-0.0623169
-0.0618286
-0.0608521
-0.0601196
-0.060546900000000015
-0.0603027
-0.0593872
-0.0591431
-0.0593872
-0.06048580000000001
-0.0614014
-0.0614014
-0.0609131
-0.0608521
-0.0603638
-0.0597534
-0.0581055
-0.0570068
-0.0574951
-0.059082
-0.060424800000000015
-0.0609741
-0.059509300000000015
-0.0578613
-0.0565796
-0.0557251
-0.0542603
-0.052124
-0.0485229
-0.0447388
-0.0404663
-0.0352783
-0.0288086
-0.0219116
-0.0167847
-0.013305700000000002
-0.00970459
-0.00598145
-0.00231934
-0.000793457
-0.00213623
-0.005737300000000001
-0.0107422
-0.0155029
-0.0210571
-0.0285034
-0.0385742
-0.049987800000000006
-0.06048580000000001
-0.0673218
-0.0700073
-0.0703125
-0.069397
-0.0684814
-0.067749
-0.0679932
-0.0686646
-0.069397
-0.06964110000000001
-0.0700684
-0.0704956
-0.0705566
-0.0697632
-0.0679932
-0.0650024
-0.0628662
-0.0630493
-0.06616210000000003
-0.0706177
-0.07281489999999999
-0.0671387
-0.0470581
-0.00506592
0.0609741
0.148804
0.25116
0.35125700000000004
0.418335
0.420654
0.344421
0.199768
0.0358887
-0.0991211
-0.175781
-0.193298
-0.169739
-0.128662
-0.0874023
-0.055481
-0.0374756
-0.032714799999999995
-0.0369263
-0.0435181
-0.0490112
-0.0509644
-0.0493774
-0.0476685
-0.0471802
-0.0471802
-0.0463257
-0.045105
-0.0430908
-0.039856
-0.0372925
-0.035522500000000005
-0.033325199999999985
-0.0314331
-0.0296631
-0.028869599999999995
-0.0283203
-0.0268555
-0.0247192
-0.021667500000000003
-0.0187988
-0.016662599999999996
-0.0144043
-0.0126343
-0.010681200000000002
-0.00823975
-0.00512695
-0.0007324219999999999
0.00238037
0.00494385
0.00836182
0.0128174
0.0182495
0.024353
0.0302734
0.0357056
0.0410156
0.0462036
0.052917499999999985
0.0593872
0.0665283
0.0750122
0.08398439999999999
0.0945435
0.104553
0.114929
0.124329
0.133545
0.142517
0.150574
0.157898
0.164856
0.170532
0.174255
0.17565899999999998
0.174622
0.17114300000000002
0.165222
0.15631099999999998
0.144592
0.129089
0.110168
0.0881958
0.0648193
0.0422363
0.0217896
0.00366211
-0.011779799999999998
-0.0249023
-0.035949699999999994
-0.0456543
-0.0529785
-0.057312
-0.0593262
-0.0608521
-0.0627441
-0.065979
-0.0690918
-0.0718384
-0.0727539
-0.07281489999999999
-0.07208250000000001
-0.07135010000000001
-0.069397
-0.0698242
-0.0708008
-0.0726318
-0.07470700000000001
-0.07482910000000001
-0.0723877
-0.0697632
-0.0673218
-0.0657349
-0.06542970000000001
-0.0647583
-0.06414790000000001
-0.06323240000000001
-0.0615845
-0.060424800000000015
-0.0601807
-0.0599976
-0.0599365
-0.0597534
-0.0601196
-0.060424800000000015
-0.0599365
-0.0588379
-0.0574341
-0.056640599999999985
-0.0562744
-0.055542
-0.0548096
-0.0546875
-0.0543823
-0.0541382
-0.052612300000000015
-0.0506592
-0.048950199999999985
-0.048584
-0.049255400000000005
-0.049987800000000006
-0.0502319
-0.0487061
-0.0476685
-0.0471191
-0.0473022
-0.0476685
-0.0479126
-0.0484009
-0.0491943
-0.0490112
-0.0480957
-0.0472412
-0.0473022
-0.0473022
-0.0474854
-0.046936
-0.0465088
-0.0460815
-0.0465088
-0.0473633
-0.0490112
-0.0515137
-0.0530396
-0.053772
-0.052734400000000015
-0.0517578
-0.049682599999999986
-0.0484009
-0.0477295
-0.048645
-0.0506592
-0.0531616
-0.0556641
-0.05688480000000001
-0.05688480000000001
-0.0568237
-0.0568237
-0.0575562
-0.05780030000000001
-0.0579834
-0.0576172
-0.057678199999999985
-0.0584106
-0.0588989
-0.0583496
-0.0587158
-0.0588379
-0.0571899
-0.0568237
-0.0562744
-0.0556641
-0.056457500000000015
-0.057251
-0.0575562
-0.056640599999999985
-0.0562744
-0.05694580000000001
-0.0587158
-0.0611572
-0.0628052
-0.0628052
-0.0618286
-0.060424800000000015
-0.059021
-0.0582886
-0.0598145
-0.0614624
-0.0614014
-0.060424800000000015
-0.0588379
-0.0580444
-0.0585327
-0.05896000000000001
-0.0588379
-0.0584717
-0.0586548
-0.05896000000000001
-0.0593872
-0.0592041
-0.05780030000000001
-0.056457500000000015
-0.0549316
-0.0540771
-0.0548706
-0.055542
-0.0556641
-0.0552979
-0.0543823
-0.0530396
-0.0531616
-0.0535889
-0.0544434
-0.0545654
-0.0534058
-0.0517578
-0.0510864
-0.052002
-0.053833000000000006
-0.05505369999999999
-0.0543823
-0.052612300000000015
-0.0501099
-0.0487671
-0.0494995
-0.0515747
-0.0543823
-0.0556641
-0.0563965
-0.055542
-0.0541382
-0.0523682
-0.0507812
-0.0494385
-0.0484619
-0.048645
-0.049133300000000005
-0.049682599999999986
-0.049682599999999986
-0.0493164
-0.0497437
-0.0505981
-0.052063
-0.0524902
-0.0510254
-0.0495605
-0.0482788
-0.0470581
-0.046814
-0.046875
-0.0470581
-0.0465698
-0.0460205
-0.0464478
-0.0479126
-0.0491943
-0.0497437
-0.0487671
-0.046875
-0.045043900000000005
-0.0441284
-0.0437622
-0.0441895
-0.0446777
-0.0448608
-0.0446777
-0.0443726
-0.0438843
-0.043396
-0.0427856
-0.0419312
-0.041320800000000005
-0.0410767
-0.0411987
-0.041748
-0.0407715
-0.0400391
-0.0387573
-0.038147
-0.0388184
-0.0393677
-0.0388184
-0.0379028
-0.0371704
-0.0357056
-0.034668
-0.034423800000000004
-0.0345459
-0.0350952
-0.0354004
-0.036438
-0.0375366
-0.0388794
-0.0388184
-0.0379028
-0.0360107
-0.0339966
-0.0338135
-0.0350952
-0.036254900000000014
-0.0368042
-0.034729
-0.031616200000000004
-0.029480000000000006
-0.0296021
-0.030761700000000006
-0.032226599999999994
-0.032958999999999995
-0.032714799999999995
-0.0311279
-0.0296631
-0.0288086
-0.0288086
-0.0289917
-0.0280762
-0.0272827
-0.0267334
-0.0271606
-0.02771
-0.0280151
-0.0275879
-0.0263062
-0.026001
-0.0259399
-0.0254517
-0.0228271
-0.0165405
-0.0098877
-0.00512695
-0.00335693
-0.00213623
0.00152588
0.00732422
0.014221200000000003
0.0205078
0.0247192
0.0261841
0.0251465
0.0228882
0.0202637
0.017761199999999998
0.0142822
0.00689697
-0.004516600000000001
-0.0178223
-0.030334500000000007
-0.0386963
-0.0412598
-0.0394287
-0.0378418
-0.036254900000000014
-0.0348511
-0.034118699999999995
-0.0336914
-0.0335693
-0.0351562
-0.0366211
-0.0375977
-0.0368652
-0.0354004
-0.0339355
-0.0338745
-0.036132800000000014
-0.0379639
-0.0339966
-0.016845699999999998
0.0222778
0.0875854
0.177979
0.287048
0.397034
0.4794310000000001
0.500854
0.443848
0.312134
0.147766
0.00170898
-0.0925293
-0.125122
-0.111328
-0.07543949999999999
-0.0375366
-0.00939941
0.00476074
0.006591800000000001
0.00152588
-0.00427246
-0.00817871
-0.00897217
-0.00762939
-0.00585938
-0.00512695
-0.00372314
-0.00115967
0.00164795
0.00402832
0.00506592
0.00500488
0.00469971
0.00585938
0.00750732
0.00927734
0.010376
0.0115356
0.014099100000000003
0.016967799999999998
0.0205078
0.022399900000000004
0.022583
0.022522
0.0234985
0.0249634
0.0269775
0.0291748
0.0324097
0.0360718
0.0397949
0.0436401
0.0479736
0.052063
0.0561523
0.060791
0.06579589999999999
0.0717163
0.07855219999999999
0.0852051
0.092041
0.098877
0.10614
0.113831
0.122375
0.13147
0.14093
0.14971900000000002
0.159058
0.168274
0.176514
0.184143
0.190247
0.194946
0.199646
0.202515
0.203735
0.202759
0.199646
0.194397
0.186646
0.177368
0.166748
0.153748
0.13855
0.121643
0.102661
0.08264160000000001
0.0635376
0.0463257
0.0321655
0.0202026
0.0111694
0.00427246
-0.00140381
-0.00616455
-0.00964355
-0.0136108
-0.016601599999999998
-0.019104
-0.0209351
-0.0213623
-0.0200195
-0.0184937
-0.0175171
-0.017394999999999997
-0.0167847
-0.0164185
-0.0162964
-0.016479499999999998
-0.016723599999999998
-0.0164185
-0.015625
-0.014892600000000002
-0.0136108
-0.012756299999999998
-0.012085
-0.0112305
-0.0102539
-0.009033200000000002
-0.00805664
-0.00756836
-0.00610352
-0.00439453
-0.00280762
-0.00189209
-0.00262451
-0.00378418
-0.0043335
-0.00354004
-0.00152588
0.000854492
0.00201416
0.00152588
0.000183105
-0.000549316
-0.000305176
0.000793457
0.00213623
0.00335693
0.00366211
0.00292969
0.000976562
-0.000793457
-0.00146484
-0.000915527
-0.000305176
0.000244141
0.000488281
-0.000183105
-0.0012207
-0.00195312
-0.00170898
-0.000976562
-0.000366211
0.0
-0.000183105
-0.000854492
-0.00177002
-0.00286865
-0.00372314
-0.00415039
-0.00457764
-0.00469971
-0.00421143
-0.00427246
-0.00494385
-0.00640869
-0.00708008
-0.00689697
-0.00634766
-0.00604248
-0.00665283
-0.00744629
-0.00860596
-0.009033200000000002
-0.00927734
-0.00915527
-0.009033200000000002
-0.00897217
-0.00952148
-0.0105591
-0.0118408
-0.0134277
-0.0145874
-0.0147705
-0.014099100000000003
-0.0136719
-0.014099100000000003
-0.0147705
-0.0158691
-0.016235399999999997
-0.016845699999999998
-0.016357399999999998
-0.016113299999999997
-0.0155029
-0.0150757
-0.0144653
-0.0137329
-0.0130615
-0.0125122
-0.0129395
-0.0130615
-0.0128784
-0.0128784
-0.0123901
-0.0110474
-0.010437
-0.0102539
-0.0111694
-0.012085
-0.0123291
-0.0125122
-0.0123901
-0.0111694
-0.00994873
-0.00878906
-0.00860596
-0.00842285
-0.00836182
-0.00817871
-0.00921631
-0.0107422
-0.0115967
-0.0125732
-0.0120239
-0.0100708
-0.00787354
-0.005737300000000001
-0.00488281
-0.00506592
-0.00579834
-0.006591800000000001
-0.006591800000000001
-0.00610352
-0.005737300000000001
-0.00518799
-0.005737300000000001
-0.00646973
-0.0067749
-0.00671387
-0.00683594
-0.00622559
-0.00476074
-0.00323486
-0.00170898
-0.00189209
-0.00317383
-0.00445557
-0.00506592
-0.00457764
-0.003479
-0.00219727
-0.000610352
0.000183105
0.0007324219999999999
0.00177002
0.00177002
0.000915527
-0.000427246
-0.00189209
-0.00317383
-0.003479
-0.00286865
-0.0020752
-0.00128174
-0.00109863
-0.00170898
-0.0020752
-0.00183105
-0.00219727
-0.00195312
-0.00146484
-0.00134277
0.000488281
0.00128174
0.00158691
0.00213623
0.00183105
0.00134277
0.00134277
0.00158691
0.00238037
0.00268555
0.0020752
0.000671387
0.000610352
0.0012207
0.00311279
0.00524902
0.006591800000000001
0.00579834
0.00366211
0.00183105
0.00177002
0.00317383
0.0055542000000000005
0.00720215
0.00695801
0.00524902
0.00378418
0.00268555
0.00305176
0.00415039
0.00500488
0.005737300000000001
0.00671387
0.00738525
0.00653076
0.00567627
0.00531006
0.00646973
0.00878906
0.0101318
0.0108032
0.0103149
0.00946045
0.009033200000000002
0.00830078
0.00787354
0.00738525
0.00671387
0.00616455
0.00549316
0.00512695
0.00506592
0.00488281
0.00500488
0.00537109
0.00561523
0.00616455
0.00689697
0.00750732
0.00726318
0.00665283
0.00653076
0.0067749
0.00769043
0.00915527
0.0112915
0.014221200000000003
0.016662599999999996
0.0189209
0.0213013
0.0231323
0.0247803
0.0267334
0.0286865
0.032226599999999994
0.0372925
0.0437622
0.0505371
0.057251
0.0628662
0.06701660000000001
0.0671997
0.06604
0.0633545
0.0596313
0.0565186
0.0528564
0.0446777
0.0314941
0.0159912
0.00213623
-0.00561523
-0.00634766
-0.00292969
0.000427246
0.00231934
0.000793457
-0.00219727
-0.00402832
-0.00384521
-0.00231934
-0.000671387
0.000427246
6.10352e-05
-0.00115967
-0.00146484
-0.00195312
-0.00274658
-0.00500488
-0.00750732
-0.00335693
0.017211900000000002
0.0633545
0.136047
0.231995
0.344055
0.455261
0.53894
0.559814
0.498169
0.358398
0.183838
0.0286255
-0.0701904
-0.102173
-0.08416749999999999
-0.0445557
-0.00408936
0.0238037
0.036193800000000005
0.0356445
0.0292358
0.023315400000000003
0.0200806
0.019165
0.0203857
0.0227051
0.0257568
0.0288086
0.0303955
0.0307007
0.0305176
0.0314331
0.033081099999999995
0.035461400000000004
0.0371704
0.0369263
0.0360107
0.0358887
0.037353500000000005
0.039856
0.0427856
0.0454102
0.0480347
0.049987800000000006
0.0510254
0.0515137
0.0528564
0.0551147
0.0581055
0.0612183
0.0637207
0.0667725
0.0699463
0.0731812
0.0775146
0.0820312
0.0861206
0.0906982
0.0958862
0.101562
0.107544
0.114136
0.12145999999999997
0.12951700000000002
0.139221
0.148926
0.158875
0.169495
0.180237
0.190247
0.198975
0.206238
0.212463
0.217896
0.223755
0.229675
0.234375
0.235962
0.234558
0.23053
0.224304
0.21698
0.207214
0.194946
0.179504
0.161743
0.141724
0.120667
0.100891
0.0830688
0.0670776
0.0528564
0.0413818
0.031311
0.022644
0.0153809
0.00982666
0.005737300000000001
0.00305176
0.00134277
-0.000549316
-0.00213623
-0.00286865
-0.00354004
-0.00323486
-0.00317383
-0.00299072
-0.00256348
-0.00146484
-0.000183105
0.000427246
6.10352e-05
-0.000488281
-0.0007324219999999999
-0.000488281
-0.000183105
0.00109863
0.00305176
0.00537109
0.00665283
0.00805664
0.00909424
0.0103149
0.0113525
0.0118408
0.011718799999999998
0.0119629
0.0123901
0.0128174
0.013305700000000002
0.012756299999999998
0.0119629
0.0120239
0.0113525
0.012207
0.0136719
0.0153809
0.0161743
0.0171509
0.0167847
0.0159912
0.0147705
0.0145874
0.014526400000000004
0.0136108
0.012756299999999998
0.0114136
0.0105591
0.010498
0.010681200000000002
0.0114136
0.0118408
0.0119019
0.010498
0.0100708
0.00976562
0.010498
0.0114136
0.0122681
0.012146
0.012085
0.0112305
0.0110474
0.0100708
0.00848389
0.00604248
0.00457764
0.00506592
0.00708008
0.00909424
0.00939941
0.00927734
0.00848389
0.00750732
0.00646973
0.00506592
0.00311279
0.00134277
0.000610352
0.000976562
0.00262451
0.00366211
0.00396729
0.00262451
0.00134277
-0.000488281
-0.00219727
-0.00378418
-0.00469971
-0.00512695
-0.00390625
-0.00256348
-0.00128174
-0.000671387
-0.00170898
-0.00408936
-0.00653076
-0.00805664
-0.00762939
-0.0067749
-0.00488281
-0.003479
-0.00274658
-0.00268555
-0.00274658
-0.00219727
-0.00262451
-0.00415039
-0.00567627
-0.00610352
-0.00592041
-0.00402832
-0.00146484
-0.000305176
-0.000488281
-0.00201416
-0.00378418
-0.00445557
-0.00427246
-0.00378418
-0.00317383
-0.00286865
-0.00213623
-0.00146484
-0.000915527
-0.00134277
-0.0022583000000000004
-0.00305176
-0.00372314
-0.003479
-0.00366211
-0.00335693
-0.00366211
-0.0032959000000000005
-0.00280762
-0.00244141
-0.0020752
-0.00195312
-0.0012207
-0.00115967
-0.00183105
-0.00268555
-0.00372314
-0.00378418
-0.00305176
-0.00292969
-0.00299072
-0.00244141
-0.00219727
-0.00219727
-0.00189209
-0.00170898
-0.00189209
-0.00115967
0.000183105
0.000610352
0.000793457
0.000610352
0.000549316
0.000305176
-0.000793457
-0.00274658
-0.00415039
-0.00390625
-0.00280762
-0.00195312
-0.00140381
-0.00140381
-0.00109863
-0.000854492
6.10352e-05
0.000671387
0.000549316
-0.00128174
-0.00317383
-0.00408936
-0.00360107
-0.00286865
-0.00268555
-0.00335693
-0.00323486
-0.00231934
-0.00189209
-0.00238037
-0.00311279
-0.00408936
-0.00421143
-0.00427246
-0.00366211
-0.00372314
-0.00378418
-0.00531006
-0.00585938
-0.00500488
-0.00366211
-0.00189209
-0.000366211
-0.0010376
-0.00341797
-0.00622559
-0.00769043
-0.00775146
-0.00622559
-0.00482178
-0.00366211
-0.00415039
-0.00439453
-0.0022583000000000004
0.00213623
0.00909424
0.016357399999999998
0.0222778
0.0272827
0.0332031
0.0394897
0.0454712
0.049987800000000006
0.0532837
0.0541992
0.0534058
0.0514526
0.0480957
0.044067400000000014
0.039856
0.0345459
0.0275269
0.017394999999999997
0.00549316
-0.00683594
-0.0158691
-0.0200195
-0.0199585
-0.0181274
-0.0162964
-0.016357399999999998
-0.017028799999999997
-0.0189209
-0.021667500000000003
-0.0234985
-0.0239258
-0.0237427
-0.0227661
-0.0218506
-0.0206909
-0.0202637
-0.0206909
-0.0219727
-0.0203857
-0.00939941
0.022583
0.0811157
0.166382
0.270752
0.38385
0.482483
0.532898
0.508789
0.400635
0.232727
0.0611572
-0.0678711
-0.130737
-0.132812
-0.0979614
-0.0517578
-0.0125122
0.011718799999999998
0.0192871
0.015197799999999997
0.00683594
0.000671387
-0.000915527
0.00201416
0.00567627
0.00823975
0.00842285
0.00695801
0.00469971
0.00396729
0.00488281
0.00799561
0.011718799999999998
0.015441899999999996
0.0177002
0.0195312
0.0197754
0.0192871
0.0187378
0.0194702
0.0217896
0.0256958
0.0296631
0.032653800000000004
0.0345459
0.0354004
0.0371704
0.0396729
0.042175300000000006
0.0449219
0.0474854
0.0518188
0.0565796
0.0612183
0.0650024
0.0684814
0.0723267
0.0769653
0.0827026
0.0901489
0.0985718
0.10675
0.113708
0.119995
0.12658699999999998
0.135132
0.145874
0.157349
0.167969
0.177979
0.186829
0.195312
0.204163
0.213196
0.22027600000000006
0.225281
0.2276
0.227722
0.225281
0.220398
0.213135
0.202759
0.18866
0.17157
0.151917
0.130432
0.108398
0.0871582
0.0671997
0.0493774
0.0334473
0.0192871
0.00616455
-0.003479
-0.0115967
-0.017211900000000002
-0.0217896
-0.0253296
-0.027648900000000004
-0.029480000000000006
-0.0311279
-0.0319214
-0.0323486
-0.0334473
-0.0345459
-0.0352173
-0.034729
-0.0338135
-0.032653800000000004
-0.032226599999999994
-0.0321655
-0.0324097
-0.0325928
-0.032531700000000004
-0.0317993
-0.0309448
-0.0296021
-0.0291748
-0.028442400000000007
-0.0287476
-0.0298462
-0.0305176
-0.0300293
-0.0285645
-0.026062
-0.0245972
-0.0228882
-0.0222778
-0.0221558
-0.0223389
-0.0234985
-0.0244751
-0.0247803
-0.0237427
-0.0214233
-0.0186768
-0.0169067
-0.017394999999999997
-0.0198364
-0.023193400000000003
-0.0264893
-0.0281372
-0.0271606
-0.0241699
-0.0212402
-0.0205688
-0.0217285
-0.0236206
-0.0252686
-0.0257568
-0.0263062
-0.026001
-0.0250854
-0.0244141
-0.0245361
-0.0252686
-0.0274048
-0.0296021
-0.0311279
-0.0309448
-0.0300903
-0.0292358
-0.0291138
-0.0292969
-0.0292358
-0.0292358
-0.0292358
-0.0293579
-0.0309448
-0.0321045
-0.033630400000000005
-0.0349731
-0.034668
-0.0345459
-0.0352783
-0.036193800000000005
-0.0366211
-0.036254900000000014
-0.0352783
-0.0350342
-0.036377
-0.038085900000000006
-0.039856
-0.0404663
-0.0402222
-0.0402832
-0.0395508
-0.0386963
-0.038147
-0.0386963
-0.0407715
-0.0441895
-0.0474243
-0.048645
-0.0484619
-0.0471802
-0.0455322
-0.0437622
-0.0422974
-0.0422974
-0.043396
-0.0446777
-0.0449219
-0.045166000000000005
-0.0454712
-0.0456543
-0.046875
-0.048950199999999985
-0.049133300000000005
-0.0480347
-0.0464478
-0.0448608
-0.0443726
-0.0453491
-0.0459595
-0.0467529
-0.0473633
-0.0488892
-0.0499268
-0.0496216
-0.0502319
-0.0506592
-0.0509033
-0.0512085
-0.0507812
-0.0507812
-0.0501099
-0.049255400000000005
-0.049133300000000005
-0.0490112
-0.0490723
-0.0488892
-0.048645
-0.048584
-0.0490723
-0.048584
-0.0487061
-0.0480957
-0.0473633
-0.0465088
-0.0456543
-0.0449219
-0.0457153
-0.0460205
-0.0462646
-0.0464478
-0.0465088
-0.0470581
-0.0477905
-0.0481567
-0.0480347
-0.0465088
-0.045105
-0.0447388
-0.0449829
-0.0449219
-0.0449219
-0.0442505
-0.0437622
-0.043457
-0.0429688
-0.0422363
-0.0405273
-0.0375366
-0.033325199999999985
-0.0285645
-0.0230103
-0.0169067
-0.0100098
-0.00335693
0.00238037
0.00653076
0.00915527
0.010498
0.0098877
0.00708008
0.00305176
0.0
-0.00384521
-0.00878906
-0.0171509
-0.0298462
-0.0447388
-0.0571289
-0.0634155
-0.06311040000000001
-0.0583496
-0.053894
-0.0529785
-0.0546875
-0.0576172
-0.0599365
-0.060729999999999985
-0.0603027
-0.0603638
-0.060791
-0.06164550000000001
-0.0618896
-0.060546900000000015
-0.059021
-0.0581665
-0.0597534
-0.0619507
-0.0609741
-0.0490112
-0.015563999999999996
0.043335000000000005
0.126831
0.228149
0.333618
0.419373
0.451599
0.408203
0.286316
0.119629
-0.0386963
-0.14856
-0.192566
-0.182007
-0.14111300000000002
-0.0931396
-0.0513916
-0.022949200000000003
-0.0130615
-0.0176392
-0.0290527
-0.0388794
-0.0427856
-0.0397949
-0.0339355
-0.0291748
-0.0269775
-0.0274048
-0.0280151
-0.0281372
-0.0273438
-0.0262451
-0.0253296
-0.0237427
-0.0205078
-0.016357399999999998
-0.012146
-0.00952148
-0.00842285
-0.00848389
-0.00799561
-0.00683594
-0.00500488
-0.00231934
0.0007324219999999999
0.0043335
0.00817871
0.0120239
0.015197799999999997
0.0169067
0.019104
0.0210571
0.0249634
0.0297241
0.0349731
0.0410156
0.0466919
0.0525513
0.0585938
0.06530760000000001
0.07269289999999999
0.0796509
0.0874023
0.0960083
0.104797
0.114136
0.12384
0.134216
0.145264
0.155945
0.165466
0.173401
0.180786
0.188477
0.196167
0.202454
0.206055
0.205383
0.200439
0.1922
0.18158
0.168457
0.15240499999999998
0.133606
0.112061
0.0881958
0.0630493
0.0378418
0.016052200000000003
-0.00158691
-0.015930200000000002
-0.0266113
-0.034668
-0.0408325
-0.0463867
-0.052673300000000006
-0.057251
-0.0614014
-0.064209
-0.065979
-0.0669556
-0.0673218
-0.06726069999999999
-0.06701660000000001
-0.06701660000000001
-0.06817630000000001
-0.0689697
-0.06964110000000001
-0.0682983
-0.06579589999999999
-0.06323240000000001
-0.0622559
-0.06292719999999999
-0.0633545
-0.0631714
-0.0626221
-0.0619507
-0.0618286
-0.0623169
-0.062561
-0.0621948
-0.0617065
-0.0612793
-0.0619507
-0.061767599999999985
-0.0617065
-0.0606689
-0.0585938
-0.057251
-0.0558472
-0.0545044
-0.0540161
-0.053833000000000006
-0.0541382
-0.0533447
-0.0519409
-0.0501709
-0.0487671
-0.0481567
-0.0485229
-0.049804699999999986
-0.0510254
-0.0510864
-0.0510864
-0.0517578
-0.0530396
-0.0536499
-0.0534058
-0.0516357
-0.0497437
-0.0485229
-0.049682599999999986
-0.0523682
-0.055542
-0.0574341
-0.05694580000000001
-0.0549316
-0.0535278
-0.0531006
-0.0543823
-0.0553589
-0.0559692
-0.055603
-0.0548706
-0.0552368
-0.0563354
-0.0575562
-0.0579834
-0.0575562
-0.0574341
-0.0581665
-0.05896000000000001
-0.0592041
-0.0588989
-0.0595703
-0.0608521
-0.0623169
-0.0636597
-0.0634155
-0.0622559
-0.0618286
-0.06414790000000001
-0.0674438
-0.0702515
-0.0706787
-0.0682373
-0.0650635
-0.0629883
-0.0630493
-0.064209
-0.0657349
-0.06701660000000001
-0.0675659
-0.06793210000000001
-0.0689697
-0.07073969999999999
-0.0718384
-0.07189939999999999
-0.0710449
-0.0692139
-0.0671387
-0.06610110000000001
-0.06610110000000001
-0.0665283
-0.06604
-0.0651245
-0.064209
-0.0639038
-0.0645752
-0.06555180000000001
-0.0668335
-0.06835939999999999
-0.069458
-0.0697632
-0.0691528
-0.06835939999999999
-0.06701660000000001
-0.0656738
-0.06414790000000001
-0.0645752
-0.0656128
-0.06604
-0.06622310000000001
-0.0653687
-0.06427000000000001
-0.0637207
-0.06292719999999999
-0.0628052
-0.062561
-0.0620728
-0.061767599999999985
-0.0614624
-0.0611572
-0.0610962
-0.0610962
-0.0611572
-0.0622559
-0.06292719999999999
-0.06292719999999999
-0.0623169
-0.0612183
-0.0603638
-0.060546900000000015
-0.0592651
-0.0576172
-0.0535278
-0.0471191
-0.0405884
-0.0338135
-0.0285645
-0.0248413
-0.021667500000000003
-0.0196533
-0.017334
-0.0132446
-0.00750732
-0.0010376
0.00323486
0.00390625
0.0020752
-0.00152588
-0.0067749
-0.0145874
-0.0252686
-0.0389404
-0.0528564
-0.0630493
-0.06762699999999999
-0.0673218
-0.0634766
-0.0601807
-0.0592651
-0.060546900000000015
-0.0626831
-0.0648193
-0.06542970000000001
-0.0651245
-0.0649414
-0.06518550000000001
-0.0656128
-0.06555180000000001
-0.0650635
-0.0635376
-0.062439
-0.0621948
-0.06292719999999999
-0.0633545
-0.0576172
-0.038085900000000006
0.00354004
0.0700684
0.15850799999999998
0.262024
0.363525
0.4343260000000001
0.441956
0.372131
0.232422
0.0680542
-0.071167
-0.15387
-0.174805
-0.153198
-0.11261
-0.0705566
-0.0379028
-0.0197754
-0.015441899999999996
-0.020752
-0.0286865
-0.0351562
-0.0378418
-0.0366821
-0.033081099999999995
-0.0286255
-0.0247192
-0.0223389
-0.021667500000000003
-0.0202637
-0.0195312
-0.0189209
-0.0171509
-0.015441899999999996
-0.0137939
-0.012146
-0.0107422
-0.00976562
-0.00860596
-0.00714111
-0.0043335
-0.000549316
0.00317383
0.00610352
0.00769043
0.00860596
0.0105591
0.0134888
0.017028799999999997
0.021667500000000003
0.0253906
0.0286865
0.0322876
0.0375977
0.0444336
0.0508423
0.0557861
0.0603027
0.06469730000000001
0.0697632
0.07714839999999999
0.0860596
0.0958252
0.105103
0.113892
0.122131
0.131104
0.141052
0.15124500000000002
0.161194
0.170654
0.179321
0.186218
0.192261
0.196289
0.198608
0.198975
0.196655
0.193176
0.187195
0.178589
0.166748
0.151489
0.131897
0.108948
0.08398439999999999
0.0593872
0.0386353
0.0215454
0.00854492
-0.00238037
-0.0109863
-0.0184937
-0.0250854
-0.0304565
-0.0353394
-0.0390015
-0.041626
-0.0437012
-0.0449219
-0.0452881
-0.0452881
-0.0455933
-0.0452271
-0.0452271
-0.0454712
-0.0452271
-0.0437622
-0.0427246
-0.0422974
-0.0409546
-0.0396118
-0.0377197
-0.0366821
-0.0366211
-0.036438
-0.036438
-0.0353394
-0.034362800000000006
-0.03302
-0.0319214
-0.0305786
-0.0296021
-0.0298462
-0.030212400000000007
-0.0305786
-0.0303955
-0.0296021
-0.0279541
-0.0257568
-0.024292
-0.024108900000000003
-0.0245972
-0.0250244
-0.0246582
-0.022949200000000003
-0.020813
-0.0188599
-0.0197144
-0.0218506
-0.0233765
-0.0239868
-0.0227661
-0.0211182
-0.0200806
-0.0197754
-0.0199585
-0.0212402
-0.0224609
-0.022644
-0.022399900000000004
-0.0216064
-0.020874
-0.0203247
-0.019043
-0.0178833
-0.0183716
-0.0197144
-0.0218506
-0.0241699
-0.0252075
-0.0239868
-0.022033700000000003
-0.0205078
-0.0197144
-0.0205078
-0.021667500000000003
-0.0224609
-0.0239258
-0.0248413
-0.0247192
-0.0240479
-0.0234985
-0.0236816
-0.0247803
-0.0267334
-0.028442400000000007
-0.0293579
-0.0289307
-0.0282593
-0.0274048
-0.0266113
-0.0264282
-0.0271606
-0.0285034
-0.0301514
-0.031189
-0.0313721
-0.030761700000000006
-0.0299072
-0.0289917
-0.0280151
-0.0275879
-0.0271606
-0.0271606
-0.026916500000000003
-0.0270386
-0.0285645
-0.0305786
-0.0316772
-0.0313721
-0.0302734
-0.0292969
-0.0296021
-0.029785200000000005
-0.0299072
-0.0296631
-0.0292969
-0.0297241
-0.0300903
-0.0305176
-0.0302734
-0.0298462
-0.0305786
-0.030761700000000006
-0.0305176
-0.0296631
-0.0280151
-0.0269775
-0.0264893
-0.0258789
-0.0253296
-0.026062
-0.0265503
-0.0267334
-0.0266724
-0.0264282
-0.0261841
-0.0257568
-0.0259399
-0.026123
-0.026123
-0.025817900000000005
-0.0251465
-0.024353
-0.024108900000000003
-0.0245972
-0.0252075
-0.0251465
-0.0247803
-0.0232544
-0.0213013
-0.0200195
-0.0195923
-0.0204468
-0.0224609
-0.0239868
-0.0244751
-0.0238037
-0.0214844
-0.0187988
-0.017334
-0.016601599999999998
-0.0169067
-0.0165405
-0.0169067
-0.0175171
-0.0180054
-0.0193481
-0.0202637
-0.0203857
-0.0192261
-0.0177002
-0.016235399999999997
-0.015930200000000002
-0.016845699999999998
-0.0181885
-0.019165
-0.0189209
-0.0178833
-0.0162964
-0.0146484
-0.014221200000000003
-0.0149536
-0.015930200000000002
-0.016235399999999997
-0.0162964
-0.0150146
-0.0126343
-0.0115967
-0.011779799999999998
-0.0130005
-0.014526400000000004
-0.015441899999999996
-0.0158691
-0.0157471
-0.0150146
-0.013855
-0.0123901
-0.0114136
-0.0115356
-0.011657700000000002
-0.0123291
-0.0128784
-0.0129395
-0.0123901
-0.0123291
-0.0123291
-0.013305700000000002
-0.0137329
-0.0137939
-0.0128174
-0.012085
-0.0108032
-0.00927734
-0.00872803
-0.00891113
-0.00921631
-0.0101929
-0.0105591
-0.0107422
-0.00982666
-0.00866699
-0.00775146
-0.00720215
-0.00640869
-0.005737300000000001
-0.00561523
-0.00524902
-0.00512695
-0.00482178
-0.0043335
-0.00469971
-0.00506592
-0.00543213
-0.00604248
-0.00628662
-0.00640869
-0.00567627
-0.00494385
-0.00488281
-0.00610352
-0.00738525
-0.00799561
-0.00817871
-0.00805664
-0.00823975
-0.00842285
-0.00836182
-0.00799561
-0.0078125
-0.0067749
-0.00592041
-0.00500488
-0.00384521
-0.00250244
-0.00219727
-0.00244141
-0.00390625
-0.0055542000000000005
-0.00714111
-0.00750732
-0.00714111
-0.00640869
-0.00561523
-0.00494385
-0.00354004
-0.0012207
0.00311279
0.00732422
0.00964355
0.00915527
0.00750732
0.00531006
0.00494385
0.00750732
0.012146
0.0181274
0.0249023
0.0323486
0.0404663
0.0469971
0.0512695
0.052795400000000006
0.052063
0.0488892
0.0424194
0.031005900000000006
0.016113299999999997
0.0012207
-0.0105591
-0.016357399999999998
-0.0169067
-0.0145874
-0.0131226
-0.0130615
-0.0140381
-0.0143433
-0.0137329
-0.012756299999999998
-0.0128174
-0.0132446
-0.0131226
-0.012756299999999998
-0.011718799999999998
-0.0110474
-0.0115967
-0.0140381
-0.017211900000000002
-0.0171509
-0.00622559
0.025634800000000003
0.0845337
0.170898
0.278687
0.395081
0.496216
0.5486449999999999
0.5253909999999999
0.41748
0.252686
0.08551030000000001
-0.0393677
-0.0993042
-0.101501
-0.0708008
-0.031860400000000004
-0.00115967
0.0162964
0.0211792
0.0185547
0.014221200000000003
0.0107422
0.00878906
0.00891113
0.0100098
0.0115356
0.0125732
0.0128784
0.0131226
0.014221200000000003
0.015563999999999996
0.017394999999999997
0.019043
0.0197144
0.0198975
0.020752
0.0220947
0.0237427
0.0255737
0.027648900000000004
0.0299072
0.0316772
0.032653800000000004
0.0328369
0.034362800000000006
0.0357056
0.0375366
0.0396118
0.0421143
0.0452271
0.048645
0.052612300000000015
0.05688480000000001
0.0613403
0.0650635
0.0680542
0.0716553
0.07623289999999999
0.0809937
0.08789060000000001
0.0953979
0.103088
0.110718
0.118164
0.12506099999999998
0.132629
0.14032
0.148499
0.15631099999999998
0.165161
0.174072
0.183105
0.191345
0.198303
0.20343
0.206543
0.208679
0.209412
0.20929
0.208069
0.204346
0.198303
0.189087
0.17639200000000002
0.160583
0.142395
0.123047
0.103088
0.08343510000000001
0.0656128
0.0495605
0.0363159
0.026062
0.0183105
0.0113525
0.00366211
-0.00268555
-0.00708008
-0.00811768
-0.00738525
-0.00744629
-0.00964355
-0.0122681
-0.014099100000000003
-0.013916
-0.0126953
-0.0111694
-0.00946045
-0.00823975
-0.00823975
-0.00854492
-0.00891113
-0.00891113
-0.00830078
-0.00634766
-0.00421143
-0.00238037
-0.00177002
-0.00256348
-0.00311279
-0.00292969
-0.00115967
0.000976562
0.00311279
0.00524902
0.00622559
0.00610352
0.00543213
0.00445557
0.00384521
0.00378418
0.00476074
0.00622559
0.00726318
0.00787354
0.00750732
0.00598145
0.00408936
0.00244141
0.00292969
0.00500488
0.00762939
0.00909424
0.00811768
0.00646973
0.00469971
0.00354004
0.00292969
0.00262451
0.00219727
0.00177002
0.00115967
0.000854492
0.000427246
-0.000610352
-0.00244141
-0.00360107
-0.00402832
-0.00366211
-0.0032959000000000005
-0.00262451
-0.00311279
-0.00415039
-0.00531006
-0.00561523
-0.00488281
-0.00384521
-0.00354004
-0.00408936
-0.0055542000000000005
-0.00683594
-0.00762939
-0.00787354
-0.00732422
-0.00689697
-0.006591800000000001
-0.00769043
-0.00933838
-0.0102539
-0.0115356
-0.0120239
-0.0115356
-0.0115967
-0.0115356
-0.0126343
-0.0133667
-0.014526400000000004
-0.0152588
-0.0150757
-0.0144653
-0.0137329
-0.0135498
-0.0145874
-0.015808100000000002
-0.015930200000000002
-0.015808100000000002
-0.0161743
-0.0165405
-0.017211900000000002
-0.017394999999999997
-0.016601599999999998
-0.0159912
-0.0150757
-0.0150146
-0.015197799999999997
-0.015808100000000002
-0.016845699999999998
-0.0167847
-0.015808100000000002
-0.0147705
-0.0136108
-0.0131226
-0.0136719
-0.0144043
-0.0146484
-0.0144653
-0.0143433
-0.0150757
-0.0158691
-0.0165405
-0.016967799999999998
-0.016479499999999998
-0.015625
-0.0143433
-0.0128784
-0.011779799999999998
-0.0115967
-0.0119629
-0.0126343
-0.0133667
-0.0134277
-0.0130005
-0.0126343
-0.0120239
-0.0112915
-0.0113525
-0.0109253
-0.0115356
-0.0120239
-0.0119629
-0.0107422
-0.00982666
-0.00946045
-0.010437
-0.010681200000000002
-0.0109863
-0.010498
-0.0100708
-0.00964355
-0.00921631
-0.00939941
-0.00897217
-0.00897217
-0.00933838
-0.00976562
-0.0106201
-0.0115356
-0.0115356
-0.0114136
-0.0114136
-0.0106201
-0.00939941
-0.00787354
-0.00714111
-0.00665283
-0.00634766
-0.00598145
-0.005737300000000001
-0.00537109
-0.00439453
-0.00390625
-0.00335693
-0.00439453
-0.00549316
-0.00653076
-0.00720215
-0.00726318
-0.00720215
-0.00720215
-0.00701904
-0.00708008
-0.00695801
-0.00708008
-0.00762939
-0.00842285
-0.00860596
-0.00872803
-0.00897217
-0.00793457
-0.00640869
-0.00476074
-0.00372314
-0.00494385
-0.00720215
-0.0078125
-0.0078125
-0.00665283
-0.00640869
-0.006591800000000001
-0.00683594
-0.00701904
-0.00683594
-0.00640869
-0.00616455
-0.00683594
-0.00762939
-0.00756836
-0.006591800000000001
-0.00512695
-0.00408936
-0.00390625
-0.00488281
-0.00683594
-0.00848389
-0.00952148
-0.00860596
-0.00671387
-0.00518799
-0.00463867
-0.00567627
-0.00701904
-0.0078125
-0.00750732
-0.00628662
-0.00598145
-0.005737300000000001
-0.00543213
-0.00476074
-0.00378418
-0.00323486
-0.00390625
-0.00488281
-0.005737300000000001
-0.00604248
-0.00683594
-0.006591800000000001
-0.00585938
-0.00537109
-0.00604248
-0.00616455
-0.00622559
-0.00604248
-0.00500488
-0.00390625
-0.00402832
-0.00512695
-0.00714111
-0.00921631
-0.0101318
-0.00866699
-0.00561523
-0.00140381
0.00305176
0.00762939
0.0125122
0.0162964
0.021667500000000003
0.0280762
0.0353394
0.0432739
0.0495605
0.0522461
0.0498657
0.0443115
0.0375977
0.0324097
0.028869599999999995
0.0253906
0.0195923
0.00952148
-0.00292969
-0.0152588
-0.0247192
-0.0290527
-0.0283813
-0.0256958
-0.0234375
-0.0223389
-0.0231323
-0.0250854
-0.0274048
-0.0286255
-0.0289307
-0.0299072
-0.030212400000000007
-0.0294189
-0.0286865
-0.026916500000000003
-0.0272217
-0.0292358
-0.0300293
-0.0220947
0.00457764
0.057678199999999985
0.138428
0.242249
0.357971
0.464539
0.528809
0.520569
0.426575
0.263672
0.0854492
-0.0562744
-0.13208
-0.141907
-0.10986300000000003
-0.0639038
-0.0234985
0.00164795
0.0109863
0.00836182
0.000976562
-0.00665283
-0.00976562
-0.00939941
-0.00732422
-0.00500488
-0.00366211
-0.00311279
-0.00231934
-0.00146484
-0.000244141
0.00115967
0.00244141
0.00415039
0.00524902
0.00640869
0.00830078
0.00927734
0.00976562
0.010498
0.0108643
0.011718799999999998
0.013305700000000002
0.015625
0.0195923
0.0239868
0.0274658
0.0300903
0.0319824
0.0338135
0.0368042
0.0403442
0.0444336
0.0481567
0.0515747
0.0557251
0.0596924
0.0643921
0.0700684
0.0765991
0.08374019999999999
0.0910034
0.0981445
0.105774
0.114319
0.124084
0.13446
0.14416500000000002
0.15325899999999998
0.161987
0.170471
0.179565
0.188538
0.197449
0.205017
0.21051
0.21325700000000006
0.213379
0.212036
0.208557
0.202698
0.194946
0.184204
0.170593
0.15387
0.134766
0.113586
0.0921631
0.07135010000000001
0.0522461
0.0354004
0.0202637
0.00823975
-0.00195312
-0.0102539
-0.0162964
-0.0219116
-0.0279541
-0.0334473
-0.038085900000000006
-0.0410156
-0.041870099999999986
-0.041137699999999985
-0.0394897
-0.0386353
-0.0378418
-0.0368652
-0.0365601
-0.0369263
-0.0374756
-0.0377197
-0.0372925
-0.0355835
-0.0338745
-0.0324097
-0.0324097
-0.03302
-0.0338745
-0.034362800000000006
-0.033325199999999985
-0.0319824
-0.0299683
-0.0288086
-0.0279541
-0.0275269
-0.0273438
-0.0280151
-0.0283203
-0.0278931
-0.0274658
-0.026001
-0.0246582
-0.023864700000000003
-0.0239868
-0.0251465
-0.0263062
-0.0261841
-0.0255737
-0.024292
-0.023193400000000003
-0.0230713
-0.023315400000000003
-0.024231
-0.0252075
-0.026062
-0.0266113
-0.0263062
-0.025634800000000003
-0.024292
-0.0245972
-0.0270996
-0.0299072
-0.0320435
-0.0323486
-0.0309448
-0.0291138
-0.0271606
-0.025817900000000005
-0.0253296
-0.0261841
-0.028442400000000007
-0.0308838
-0.0331421
-0.0338135
-0.0328979
-0.0321045
-0.0305176
-0.0291138
-0.0285034
-0.0294189
-0.031066900000000005
-0.0331421
-0.0352783
-0.0363159
-0.036254900000000014
-0.036377
-0.0358887
-0.034729
-0.0338745
-0.034118699999999995
-0.0350952
-0.037231400000000005
-0.0401611
-0.0427856
-0.044006300000000005
-0.0437622
-0.0431519
-0.0426636
-0.043335000000000005
-0.0443115
-0.0438843
-0.0435791
-0.0443115
-0.0455322
-0.0469971
-0.0481567
-0.0473022
-0.0455933
-0.0437012
-0.043335000000000005
-0.044006300000000005
-0.0449219
-0.0454102
-0.0455933
-0.0455933
-0.0460815
-0.045898400000000006
-0.045043900000000005
-0.044006300000000005
-0.0438843
-0.0442505
-0.0452881
-0.046814
-0.048217800000000005
-0.048217800000000005
-0.0473022
-0.0459595
-0.045105
-0.0449219
-0.0463867
-0.0470581
-0.0466919
-0.0452881
-0.0435791
-0.041992199999999986
-0.0412598
-0.0419312
-0.0425415
-0.0432739
-0.0438232
-0.0436401
-0.0426636
-0.041320800000000005
-0.0408936
-0.0415039
-0.042175300000000006
-0.0425415
-0.0418091
-0.0411987
-0.0405884
-0.0405273
-0.041442900000000005
-0.0424194
-0.0422974
-0.0410156
-0.0393066
-0.0383301
-0.0378418
-0.037353500000000005
-0.0365601
-0.0374146
-0.0385742
-0.0402832
-0.0409546
-0.0394287
-0.0367432
-0.0353394
-0.0353394
-0.036987300000000015
-0.0391846
-0.0405273
-0.0407715
-0.0407715
-0.0400391
-0.038147
-0.036438
-0.0350952
-0.0345459
-0.0350952
-0.0360718
-0.0367432
-0.0372925
-0.0379028
-0.0370483
-0.035949699999999994
-0.035461400000000004
-0.0354004
-0.0352783
-0.0360718
-0.0358276
-0.0352783
-0.0337524
-0.0324097
-0.031311
-0.0317993
-0.0322876
-0.0334473
-0.0342407
-0.0352173
-0.0358887
-0.036132800000000014
-0.036254900000000014
-0.035949699999999994
-0.034729
-0.034729
-0.034118699999999995
-0.033325199999999985
-0.0320435
-0.0302734
-0.0288086
-0.0289307
-0.0299683
-0.0292358
-0.0249023
-0.0183105
-0.0114136
-0.00500488
0.0012207
0.00720215
0.0142822
0.0218506
0.0271606
0.0293579
0.0274048
0.0228882
0.0178223
0.0136719
0.010376
0.00634766
-0.000366211
-0.00952148
-0.0213623
-0.0319824
-0.0396118
-0.0425415
-0.0412598
-0.0377808
-0.034668
-0.0335693
-0.0353394
-0.0379639
-0.039978
-0.0408325
-0.0410767
-0.0410767
-0.0410767
-0.040405300000000005
-0.0393066
-0.0379028
-0.0375977
-0.0383301
-0.0394287
-0.0353394
-0.0181885
0.0215454
0.0864258
0.175171
0.279724
0.386902
0.4683229999999999
0.489929
0.432312
0.297058
0.125916
-0.0274658
-0.12561
-0.156677
-0.137146
-0.0939331
-0.049133300000000005
-0.016113299999999997
0.00012207
0.00140381
-0.00488281
-0.0112305
-0.0143433
-0.014099100000000003
-0.012146
-0.00952148
-0.006591800000000001
-0.00360107
-0.00170898
-0.0007324219999999999
0.00012207
0.000366211
0.00146484
0.00323486
0.00488281
0.00671387
0.00787354
0.00915527
0.0103149
0.0113525
0.012085
0.0134888
0.016052200000000003
0.0201416
0.0236816
0.0257568
0.026794400000000003
0.0274048
0.028869599999999995
0.032226599999999994
0.0376587
0.0432129
0.0477295
0.0508423
0.052917499999999985
0.0563354
0.0613403
0.06671139999999999
0.0719604
0.07708739999999999
0.08343510000000001
0.0905762
0.0994873
0.108337
0.11676
0.124634
0.132629
0.141785
0.152161
0.16308599999999998
0.17346199999999998
0.182739
0.191589
0.199829
0.207642
0.214722
0.220764
0.223816
0.223511
0.221008
0.216431
0.208984
0.197876
0.183228
0.16571
0.146118
0.125183
0.104004
0.0825806
0.0620117
0.0429077
0.026367200000000004
0.0130005
0.00256348
-0.00524902
-0.0107422
-0.015686000000000002
-0.0205078
-0.0247192
-0.0281372
-0.0304565
-0.031005900000000006
-0.031066900000000005
-0.0309448
-0.030334500000000007
-0.029480000000000006
-0.0275269
-0.026123
-0.0259399
-0.0266113
-0.0281372
-0.029785200000000005
-0.031005900000000006
-0.0302734
-0.0280151
-0.024353
-0.020813
-0.0181885
-0.016845699999999998
-0.017761199999999998
-0.0194092
-0.0202637
-0.0200806
-0.0187378
-0.016723599999999998
-0.0147095
-0.0128174
-0.0112915
-0.0105591
-0.0101929
-0.0101318
-0.0107422
-0.0120239
-0.0134888
-0.0147705
-0.0147705
-0.0129395
-0.0101318
-0.00634766
-0.00305176
-0.00219727
-0.00341797
-0.00469971
-0.00653076
-0.00653076
-0.00537109
-0.00415039
-0.00354004
-0.00305176
-0.00299072
-0.00299072
-0.00317383
-0.003479
-0.00384521
-0.00402832
-0.00469971
-0.00506592
-0.00549316
-0.00549316
-0.00378418
-0.00219727
-0.00146484
-0.00170898
-0.00262451
-0.0032959000000000005
-0.00421143
-0.00531006
-0.00598145
-0.005737300000000001
-0.00537109
-0.00463867
-0.00439453
-0.00543213
-0.00689697
-0.00836182
-0.00866699
-0.00836182
-0.00805664
-0.00860596
-0.00939941
-0.0106201
-0.0112915
-0.0123901
-0.0136719
-0.0144653
-0.0150146
-0.0145874
-0.0134888
-0.0123901
-0.0120239
-0.0126343
-0.0136108
-0.0148315
-0.015441899999999996
-0.0161743
-0.0164185
-0.0162964
-0.0151367
-0.0139771
-0.0126953
-0.0123291
-0.0132446
-0.0147705
-0.0161743
-0.0169067
-0.0161743
-0.015441899999999996
-0.015563999999999996
-0.015930200000000002
-0.016357399999999998
-0.0159912
-0.015441899999999996
-0.0146484
-0.013855
-0.0135498
-0.0144653
-0.0153809
-0.016113299999999997
-0.0155029
-0.0144653
-0.0125122
-0.0112915
-0.0106201
-0.0102539
-0.0107422
-0.0111084
-0.0114746
-0.012146
-0.0124512
-0.0126343
-0.0126953
-0.0123901
-0.0120239
-0.0125122
-0.0132446
-0.0131226
-0.0128784
-0.0124512
-0.011657700000000002
-0.0106201
-0.00909424
-0.00726318
-0.00567627
-0.00488281
-0.00512695
-0.00469971
-0.00531006
-0.00646973
-0.00866699
-0.0111694
-0.0114136
-0.00976562
-0.00708008
-0.00524902
-0.004516600000000001
-0.00457764
-0.00476074
-0.00482178
-0.00482178
-0.00518799
-0.00628662
-0.00744629
-0.00738525
-0.00616455
-0.00402832
-0.00274658
-0.00238037
-0.00280762
-0.00354004
-0.003479
-0.00286865
-0.00134277
0.000793457
0.00238037
0.0022583000000000004
0.000427246
-0.00183105
-0.00311279
-0.003479
-0.00256348
-0.00177002
-0.000976562
-0.000427246
0.000183105
0.00134277
0.00256348
0.00274658
0.0022583000000000004
0.000976562
-0.000549316
-0.000488281
-0.000305176
0.00158691
0.00292969
0.00292969
0.00195312
0.00213623
0.00286865
0.00390625
0.00494385
0.00524902
0.00488281
0.00476074
0.00427246
0.00366211
0.00335693
0.00323486
0.00317383
0.0032959000000000005
0.00372314
0.0043335
0.00494385
0.00494385
0.00415039
0.003479
0.00286865
0.00274658
0.00274658
0.00317383
0.00354004
0.00445557
0.00610352
0.00848389
0.0114136
0.015686000000000002
0.0211182
0.0270386
0.0331421
0.0391846
0.0454102
0.051696800000000015
0.05694580000000001
0.0606689
0.0628662
0.0635986
0.0630493
0.06060790000000001
0.0563354
0.0513306
0.0471191
0.041992199999999986
0.0346069
0.024353
0.0126343
0.00213623
-0.00469971
-0.00604248
-0.00469971
-0.00317383
-0.00262451
-0.00323486
-0.00463867
-0.00549316
-0.00524902
-0.004516600000000001
-0.00274658
-0.000976562
-0.000488281
-0.0007324219999999999
-0.0012207
-0.00286865
-0.00531006
-0.0078125
-0.00354004
0.016845699999999998
0.06292719999999999
0.13623
0.234619
0.34991500000000003
0.46344
0.546387
0.563904
0.498169
0.35449200000000003
0.178284
0.024231
-0.07208250000000001
-0.102234
-0.08398439999999999
-0.0441284
-0.00396729
0.0249023
0.0379639
0.0378418
0.031066900000000005
0.0236206
0.0192261
0.0183716
0.0200806
0.0227661
0.0245361
0.0257568
0.0271606
0.0286865
0.030334500000000007
0.031189
0.0321655
0.033325199999999985
0.0350342
0.0366211
0.038147
0.0391235
0.0405273
0.0424194
0.0444946
0.0465698
0.0485229
0.0500488
0.0512695
0.052612300000000015
0.053894
0.0552368
0.0574951
0.060729999999999985
0.06469730000000001
0.06835939999999999
0.0715942
0.0751343
0.07916260000000001
0.0836182
0.0875854
0.0917969
0.0961914
0.101624
0.108032
0.114868
0.122253
0.129395
0.137207
0.145386
0.15448
0.16381800000000002
0.172852
0.181946
0.191895
0.201843
0.211975
0.221375
0.229065
0.235046
0.239258
0.240845
0.241638
0.24176
0.240417
0.236816
0.229248
0.217773
0.202637
0.184204
0.164246
0.143494
0.122253
0.101807
0.0824585
0.06555180000000001
0.0508423
0.0388794
0.0294189
0.022949200000000003
0.0182495
0.014526400000000004
0.0109253
0.00854492
0.00610352
0.00427246
0.00274658
0.0010376
-0.000366211
-0.000915527
-0.000183105
0.00158691
0.00323486
0.00427246
0.00457764
0.0043335
0.00469971
0.00415039
0.00378418
0.0032959000000000005
0.00396729
0.00561523
0.00762939
0.010376
0.0130615
0.0148315
0.015808100000000002
0.014892600000000002
0.0140381
0.0137329
0.0136108
0.013855
0.0149536
0.015686000000000002
0.0159912
0.016845699999999998
0.0175781
0.0180054
0.0177002
0.016113299999999997
0.0150757
0.014526400000000004
0.015686000000000002
0.016601599999999998
0.0169067
0.0161743
0.014221200000000003
0.0130005
0.0123901
0.0134277
0.0151367
0.0152588
0.014221200000000003
0.0126953
0.012146
0.0120239
0.0119629
0.0119629
0.0115356
0.0107422
0.0106201
0.0100708
0.010437
0.0108643
0.0110474
0.0112305
0.0115967
0.0120239
0.011779799999999998
0.0112915
0.0101929
0.00860596
0.00823975
0.00854492
0.00811768
0.00756836
0.00701904
0.00695801
0.00714111
0.00793457
0.00811768
0.00726318
0.00665283
0.0067749
0.00628662
0.00585938
0.00488281
0.0032959000000000005
0.000793457
-0.000915527
-0.00256348
-0.00262451
-0.00280762
-0.00286865
-0.00244141
-0.00274658
-0.00274658
-0.00256348
-0.00262451
-0.00244141
-0.00189209
-0.00140381
-0.00152588
-0.0020752
-0.00256348
-0.00384521
-0.00518799
-0.00531006
-0.0055542000000000005
-0.00531006
-0.00512695
-0.00469971
-0.00463867
-0.00421143
-0.00396729
-0.00390625
-0.00384521
-0.00341797
-0.0032959000000000005
-0.00286865
-0.00292969
-0.00366211
-0.00512695
-0.00640869
-0.00604248
-0.00415039
-0.00170898
0.00012207
0.000244141
-0.000305176
-0.0010376
-0.00128174
-0.000976562
-0.000854492
-0.00170898
-0.00231934
-0.00201416
-0.000549316
0.000854492
0.0012207
0.000244141
-0.000549316
-0.000549316
0.000427246
0.000854492
0.000793457
0.0010376
0.00115967
0.00244141
0.00341797
0.00366211
0.00219727
0.000793457
6.10352e-05
0.000671387
0.00244141
0.00457764
0.00689697
0.00799561
0.0078125
0.00610352
0.004516600000000001
0.0032959000000000005
0.00274658
0.00311279
0.00402832
0.00543213
0.00543213
0.00598145
0.00616455
0.00616455
0.0067749
0.00683594
0.00665283
0.00689697
0.00769043
0.00793457
0.00756836
0.00665283
0.00604248
0.00640869
0.00762939
0.00921631
0.0109863
0.011779799999999998
0.0100708
0.00714111
0.00415039
0.00177002
0.00183105
0.00402832
0.0067749
0.00897217
0.00921631
0.00805664
0.00537109
0.00262451
0.000854492
0.000244141
0.00128174
0.00299072
0.003479
0.003479
0.00341797
0.00378418
0.00384521
0.003479
0.00341797
0.00292969
0.00286865
0.00335693
0.00360107
0.00390625
0.00396729
0.00372314
0.00366211
0.00341797
0.00238037
0.0007324219999999999
-0.00109863
-0.00158691
-6.10352e-05
0.00134277
0.00244141
0.0020752
0.000854492
-0.00128174
-0.00311279
-0.00335693
-0.0020752
0.0010376
0.00335693
0.00402832
0.00292969
0.0010376
0.0
0.000366211
0.00152588
0.00219727
0.00146484
6.10352e-05
-0.0012207
-0.0022583000000000004
-0.00256348
-0.00195312
-0.000793457
-0.000183105
-0.000671387
-0.00164795
-0.0022583000000000004
-0.00195312
-0.00164795
-0.00231934
-0.00299072
-0.00354004
-0.00238037
-0.000366211
0.00146484
0.00292969
0.00421143
0.00640869
0.0103149
0.0147705
0.0195312
0.0253906
0.032714799999999995
0.0401611
0.0471802
0.0519409
0.0543823
0.0545044
0.0519409
0.0473633
0.042175300000000006
0.0384521
0.034789999999999995
0.0300903
0.022399900000000004
0.0125122
0.00128174
-0.00933838
-0.016479499999999998
-0.0186768
-0.0181274
-0.0162964
-0.015563999999999996
-0.016052200000000003
-0.0184326
-0.0213013
-0.0234985
-0.024108900000000003
-0.0228271
-0.0202637
-0.0188599
-0.0192871
-0.0213013
-0.0244141
-0.0279541
-0.0299683
-0.0253906
-0.00402832
0.0420532
0.11499
0.21087600000000006
0.322144
0.432739
0.514221
0.5330199999999999
0.469666
0.326172
0.14746099999999998
-0.0115356
-0.11291500000000003
-0.145325
-0.125244
-0.0801392
-0.032714799999999995
0.00164795
0.0172729
0.0171509
0.00848389
-0.000854492
-0.00640869
-0.00744629
-0.00561523
-0.00244141
0.000366211
0.00238037
0.00366211
0.00384521
0.00427246
0.00427246
0.00476074
0.00610352
0.00689697
0.00769043
0.00897217
0.00915527
0.0100098
0.0122681
0.0144653
0.0167847
0.0184937
0.0192261
0.0203857
0.0219727
0.0247803
0.027771
0.0314331
0.0356445
0.0397949
0.0431519
0.0455933
0.048584
0.0530396
0.05780030000000001
0.0621948
0.06665039999999997
0.0710449
0.07623289999999999
0.08251950000000001
0.0897217
0.0963135
0.103027
0.109741
0.117737
0.12738
0.138062
0.147949
0.158142
0.168762
0.17926
0.190308
0.199097
0.205872
0.211121
0.215454
0.21814
0.219604
0.218445
0.214783
0.20770300000000005
0.197266
0.183777
0.167419
0.14941400000000002
0.130371
0.110107
0.0875854
0.0650024
0.0430908
0.0240479
0.00909424
-0.0032959000000000005
-0.0119019
-0.0186768
-0.0252075
-0.031066900000000005
-0.0358276
-0.0390015
-0.0407104
-0.0410156
-0.0410156
-0.041442900000000005
-0.042175300000000006
-0.0427856
-0.0427856
-0.0422363
-0.041687
-0.0415649
-0.042175300000000006
-0.043457
-0.044067400000000014
-0.0442505
-0.0438843
-0.0419312
-0.0406494
-0.0408325
-0.0421143
-0.0437622
-0.044006300000000005
-0.0426636
-0.0419312
-0.0408325
-0.0390625
-0.037231400000000005
-0.0360718
-0.034668
-0.034423800000000004
-0.034789999999999995
-0.0366211
-0.038085900000000006
-0.0385742
-0.0383911
-0.0372925
-0.035522500000000005
-0.034729
-0.034362800000000006
-0.034668
-0.0358887
-0.0368042
-0.0377808
-0.0377808
-0.0375366
-0.0366821
-0.0357056
-0.0352173
-0.0360718
-0.038208
-0.039978
-0.041137699999999985
-0.0413818
-0.0403442
-0.0391235
-0.038147
-0.0386963
-0.0410156
-0.043335000000000005
-0.0444336
-0.0438843
-0.0421143
-0.0407715
-0.041442900000000005
-0.0426636
-0.0444336
-0.0456543
-0.0459595
-0.0460815
-0.0455322
-0.0458374
-0.0463257
-0.0490723
-0.052673300000000006
-0.0565796
-0.05792240000000001
-0.0565796
-0.0541992
-0.0524902
-0.051696800000000015
-0.052063
-0.0535278
-0.0545654
-0.055481
-0.0565796
-0.0584717
-0.060424800000000015
-0.0620728
-0.0631714
-0.06311040000000001
-0.0623169
-0.0609741
-0.0598755
-0.05896000000000001
-0.0596313
-0.0612793
-0.0636597
-0.06579589999999999
-0.06701660000000001
-0.06738279999999999
-0.065979
-0.0640259
-0.0620117
-0.0609741
-0.0613403
-0.062561
-0.0638428
-0.0639038
-0.06329349999999999
-0.0628052
-0.0637207
-0.0647583
-0.06591799999999999
-0.06671139999999999
-0.06781010000000001
-0.0687866
-0.069458
-0.0684814
-0.0668335
-0.0657349
-0.06604
-0.0670776
-0.0679932
-0.0680542
-0.06750489999999999
-0.0663452
-0.06463619999999999
-0.064209
-0.06469730000000001
-0.06616210000000003
-0.0678711
-0.0687866
-0.0689697
-0.06811519999999999
-0.0671997
-0.067749
-0.0701294
-0.07128910000000001
-0.07189939999999999
-0.0716553
-0.07098389999999999
-0.0697632
-0.0687866
-0.06793210000000001
-0.06616210000000003
-0.0649414
-0.06427000000000001
-0.06414790000000001
-0.0654907
-0.06726069999999999
-0.06854249999999999
-0.06927489999999999
-0.0697021
-0.0703125
-0.0714111
-0.07189939999999999
-0.07128910000000001
-0.06872560000000001
-0.06610110000000001
-0.0651245
-0.0657349
-0.0667725
-0.0653687
-0.0612793
-0.0552368
-0.050415
-0.0466309
-0.0426636
-0.0371704
-0.0301514
-0.0222778
-0.014099100000000003
-0.00823975
-0.00610352
-0.00909424
-0.0139771
-0.0196533
-0.0223389
-0.023864700000000003
-0.0263062
-0.0345459
-0.0494995
-0.06616210000000003
-0.08026119999999999
-0.0875854
-0.0875854
-0.08343510000000001
-0.07855219999999999
-0.0758667
-0.07592769999999999
-0.0784302
-0.0808716
-0.08227539999999997
-0.08300779999999999
-0.08300779999999999
-0.0823975
-0.08142089999999999
-0.08007810000000001
-0.07891849999999999
-0.0783691
-0.0778809
-0.0784912
-0.08026119999999999
-0.08062739999999999
-0.07244869999999999
-0.0473022
0.0010376
0.07336430000000001
0.1651
0.265259
0.353943
0.39801
0.372192
0.268921
0.110779
-0.0494385
-0.167175
-0.220154
-0.215149
-0.176086
-0.126831
-0.0830688
-0.0534668
-0.0402832
-0.039978
-0.046875
-0.053772
-0.0574951
-0.05792240000000001
-0.0563354
-0.0533447
-0.051147500000000005
-0.0490723
-0.0473022
-0.0452881
-0.0443726
-0.0435791
-0.0413818
-0.0385742
-0.035522500000000005
-0.0331421
-0.03125
-0.0299683
-0.0281372
-0.026001
-0.024292
-0.0222778
-0.0195312
-0.016845699999999998
-0.0134888
-0.0102539
-0.00720215
-0.00372314
-0.000549316
0.00268555
0.00708008
0.0110474
0.0153809
0.020752
0.0267334
0.032226599999999994
0.0374146
0.0418091
0.0470581
0.052612300000000015
0.059509300000000015
0.06854249999999999
0.0772095
0.0856323
0.0938721
0.101929
0.110718
0.121033
0.132751
0.144958
0.15741
0.16888399999999998
0.178345
0.186401
0.193604
0.200195
0.204346
0.206543
0.206787
0.204407
0.199219
0.188477
0.172302
0.151672
0.127197
0.102051
0.0778809
0.0551147
0.034118699999999995
0.0149536
-0.00238037
-0.0164185
-0.028869599999999995
-0.039917
-0.0487671
-0.0551147
-0.059509300000000015
-0.061767599999999985
-0.064209
-0.06671139999999999
-0.06872560000000001
-0.0703125
-0.0710449
-0.071167
-0.07135010000000001
-0.0704956
-0.06933589999999999
-0.06689450000000001
-0.0647583
-0.0635986
-0.0637207
-0.06530760000000001
-0.06793210000000001
-0.06933589999999999
-0.0690918
-0.067688
-0.0651245
-0.0618896
-0.0600586
-0.0585938
-0.0577393
-0.05780030000000001
-0.0588989
-0.0600586
-0.0608521
-0.0608521
-0.0597534
-0.05896000000000001
-0.0582275
-0.0570679
-0.0560913
-0.0551758
-0.0546875
-0.0546875
-0.0541992
-0.0525513
-0.0499268
-0.0472412
-0.045898400000000006
-0.046936
-0.0488281
-0.0504761
-0.050293
-0.049255400000000005
-0.046875
-0.0452881
-0.045166000000000005
-0.0466919
-0.0479736
-0.0490723
-0.049133300000000005
-0.0480957
-0.0469971
-0.0463257
-0.0454102
-0.045105
-0.0448608
-0.0449829
-0.0452271
-0.0455322
-0.046875
-0.0485229
-0.0507812
-0.052673300000000006
-0.0536499
-0.0534668
-0.0516357
-0.0506592
-0.0512695
-0.0529785
-0.0543823
-0.0552979
-0.0552979
-0.0545044
-0.053772
-0.0533447
-0.0534058
-0.0546875
-0.0552979
-0.055481
-0.05505369999999999
-0.0546875
-0.0546875
-0.054992700000000005
-0.055419900000000015
-0.055603
-0.0549316
-0.053955099999999985
-0.0534058
-0.0536499
-0.0540161
-0.0548706
-0.055419900000000015
-0.056640599999999985
-0.0576172
-0.0583496
-0.057312
-0.0552979
-0.0530396
-0.0513916
-0.0516357
-0.0534058
-0.0559082
-0.057251
-0.056457500000000015
-0.053833000000000006
-0.052063
-0.0516357
-0.052002
-0.0529785
-0.052917499999999985
-0.052734400000000015
-0.052917499999999985
-0.052795400000000006
-0.052612300000000015
-0.052063
-0.0513916
-0.0514526
-0.052063
-0.052673300000000006
-0.0536499
-0.05432130000000001
-0.0552979
-0.05688480000000001
-0.0574951
-0.05688480000000001
-0.0553589
-0.053833000000000006
-0.0524902
-0.0516357
-0.0507812
-0.050293
-0.0507812
-0.0513916
-0.052673300000000006
-0.0545654
-0.0546265
-0.0531616
-0.0512695
-0.0494995
-0.0496216
-0.0516357
-0.0536499
-0.0547485
-0.0546265
-0.0535889
-0.052124
-0.0509033
-0.049804699999999986
-0.0481567
-0.0469971
-0.046875
-0.0473022
-0.0480957
-0.0480347
-0.0460205
-0.041748
-0.036254900000000014
-0.030761700000000006
-0.025817900000000005
-0.0222168
-0.0182495
-0.0128784
-0.00665283
-0.000366211
0.00598145
0.010376
0.0123901
0.0118408
0.00891113
0.00518799
0.000854492
-0.00421143
-0.0108032
-0.0197754
-0.0305786
-0.0412598
-0.0498657
-0.0546875
-0.0552368
-0.0533447
-0.0508423
-0.049682599999999986
-0.0507812
-0.0525513
-0.0540161
-0.0548706
-0.05432130000000001
-0.0536499
-0.0533447
-0.0531616
-0.0535889
-0.053772
-0.0530396
-0.0517578
-0.050354
-0.050293
-0.0496216
-0.041992199999999986
-0.0169067
0.03302
0.10968
0.208557
0.319519
0.420105
0.477234
0.462524
0.36731
0.211792
0.0491943
-0.07617189999999999
-0.140015
-0.145813
-0.117126
-0.0775146
-0.0423584
-0.0194092
-0.0100708
-0.010437
-0.0159912
-0.0213623
-0.0234985
-0.0234375
-0.0222168
-0.0202026
-0.0185547
-0.0180054
-0.0174561
-0.016357399999999998
-0.0147095
-0.0126953
-0.010681200000000002
-0.00848389
-0.006591800000000001
-0.00512695
-0.00427246
-0.00274658
-0.000305176
0.00323486
0.00640869
0.00787354
0.00762939
0.00701904
0.00720215
0.009033200000000002
0.0124512
0.016052200000000003
0.0195923
0.0227051
0.0256958
0.0291748
0.032775900000000004
0.0360107
0.0394897
0.0429688
0.0465088
0.052002
0.0582886
0.0644531
0.07110599999999999
0.0778809
0.0847168
0.0925903
0.100647
0.10888699999999997
0.11853
0.128662
0.139954
0.151001
0.161194
0.17028800000000002
0.178894
0.186096
0.192688
0.197632
0.200989
0.203247
0.203796
0.202515
0.198425
0.189758
0.178223
0.164062
0.14856
0.13147
0.113098
0.0930786
0.07324220000000001
0.053710900000000006
0.0365601
0.0209961
0.00830078
-0.00219727
-0.0101318
-0.0150146
-0.018066400000000003
-0.0198364
-0.0214844
-0.0230103
-0.0236816
-0.0239868
-0.024231
-0.0257568
-0.0278931
-0.0296631
-0.0297241
-0.027771
-0.0244141
-0.0214233
-0.0205078
-0.0211792
-0.0218506
-0.022583
-0.0221558
-0.0205688
-0.019165
-0.0167847
-0.0142822
-0.0119629
-0.0101318
-0.00909424
-0.00958252
-0.0102539
-0.0108643
-0.0101929
-0.00817871
-0.00622559
-0.00512695
-0.00482178
-0.00537109
-0.00592041
-0.004516600000000001
-0.00299072
-0.00170898
-0.00183105
-0.00311279
-0.0043335
-0.00439453
-0.00439453
-0.0043335
-0.004516600000000001
-0.00476074
-0.00469971
-0.00415039
-0.00323486
-0.00140381
0.0
0.0012207
0.000976562
-0.000976562
-0.00250244
-0.00286865
-0.0020752
-0.000427246
0.0012207
0.00109863
0.000305176
0.0
0.00012207
-0.000366211
-0.00115967
-0.00250244
-0.00408936
-0.00518799
-0.00549316
-0.00622559
-0.00622559
-0.00592041
-0.00561523
-0.00537109
-0.00531006
-0.005737300000000001
-0.0067749
-0.00817871
-0.00915527
-0.00897217
-0.00848389
-0.00823975
-0.00750732
-0.00775146
-0.00872803
-0.0101318
-0.0115967
-0.0128784
-0.0137939
-0.0148315
-0.015930200000000002
-0.0157471
-0.0146484
-0.0128174
-0.011779799999999998
-0.0114746
-0.0126343
-0.0130005
-0.0128174
-0.0119629
-0.0107422
-0.0107422
-0.0112915
-0.011657700000000002
-0.0115356
-0.0109253
-0.0111084
-0.0119629
-0.0118408
-0.0112915
-0.010376
-0.010376
-0.0113525
-0.012756299999999998
-0.0137939
-0.0128784
-0.011718799999999998
-0.0115356
-0.012146
-0.0126953
-0.0124512
-0.0106201
-0.00848389
-0.00744629
-0.00787354
-0.00970459
-0.0114746
-0.0123901
-0.0125122
-0.0118408
-0.0107422
-0.0101929
-0.00952148
-0.00976562
-0.0103149
-0.0108643
-0.0111694
-0.010681200000000002
-0.010376
-0.00958252
-0.00921631
-0.00860596
-0.00811768
-0.00750732
-0.00683594
-0.00549316
-0.00463867
-0.00439453
-0.00537109
-0.00671387
-0.00805664
-0.00738525
-0.00524902
-0.00213623
-0.000183105
-6.10352e-05
-0.00164795
-0.00354004
-0.00567627
-0.00634766
-0.00616455
-0.00500488
-0.00250244
-0.00109863
-0.000427246
-0.000366211
-0.00195312
-0.00335693
-0.00323486
-0.0010376
0.0020752
0.004516600000000001
0.00445557
0.00177002
-0.000488281
-0.000610352
0.00134277
0.0043335
0.006591800000000001
0.00653076
0.00543213
0.00378418
0.00317383
0.00311279
0.00305176
0.00335693
0.00335693
0.00408936
0.004516600000000001
0.00421143
0.00311279
0.00213623
0.00183105
0.00244141
0.00421143
0.00616455
0.00738525
0.00799561
0.00714111
0.0055542000000000005
0.00384521
0.00299072
0.00305176
0.00415039
0.00543213
0.00665283
0.00683594
0.00598145
0.00512695
0.00476074
0.00531006
0.00701904
0.00891113
0.00939941
0.00823975
0.00756836
0.00708008
0.00732422
0.00793457
0.00817871
0.00787354
0.00787354
0.00787354
0.00860596
0.00878906
0.00933838
0.00970459
0.00952148
0.0098877
0.0098877
0.00909424
0.00793457
0.00769043
0.00872803
0.0102539
0.0119019
0.0123291
0.0115356
0.00994873
0.00909424
0.00872803
0.00946045
0.0103149
0.0109253
0.0108643
0.010681200000000002
0.010681200000000002
0.0101929
0.00982666
0.00976562
0.0107422
0.0119629
0.0130005
0.0136719
0.013305700000000002
0.0126953
0.0122681
0.0123901
0.0119629
0.0115967
0.0115356
0.011779799999999998
0.0129395
0.0144043
0.015441899999999996
0.016052200000000003
0.0167847
0.0197754
0.0234375
0.028869599999999995
0.0345459
0.0401611
0.0462036
0.053833000000000006
0.0612793
0.0669556
0.06951900000000001
0.069458
