CH2
0.181824
0.186951
0.184753
0.180237
0.176636
0.178223
0.187561
0.201477
0.217407
0.222046
0.217773
0.211487
0.204834
0.201599
0.20166
0.20575
0.211182
0.22229
0.239868
0.25824
0.274536
0.284851
0.28686500000000004
0.289612
0.300232
0.315979
0.334534
0.350037
0.362061
0.370911
0.372803
0.372253
0.374023
0.378967
0.39032
0.398376
0.394348
0.37854
0.352295
0.330994
0.319397
0.314148
0.297119
0.262573
0.22277800000000006
0.193604
0.178223
0.175964
0.175781
0.169006
0.15704300000000002
0.143494
0.13305699999999998
0.12793
0.125549
0.124268
0.125122
0.1297
0.135254
0.13739
0.14288299999999998
0.149536
0.155823
0.151978
0.134399
0.112427
0.0966797
0.0949707
0.106995
0.122253
0.134521
0.14013699999999998
0.144592
0.15332
0.15771500000000002
0.14971900000000002
0.127136
0.09790039999999997
0.0836182
0.0908203
0.108337
0.127075
0.14801
0.161377
0.159851
0.151001
0.137329
0.119751
0.105225
0.100769
0.104492
0.114624
0.12573199999999998
0.132507
0.131348
0.127136
0.121643
0.10888699999999997
0.0980835
0.0921631
0.09375
0.0969238
0.0961304
0.0933228
0.08636469999999999
0.0766602
0.0704956
0.07135010000000001
0.083313
0.100281
0.114319
0.118591
0.105286
0.0794067
0.05688480000000001
0.0478516
0.0522461
0.0614014
0.0690308
0.0758057
0.0839233
0.088562
0.0838623
0.06781010000000001
0.0505371
0.0384521
0.0378418
0.0474243
0.0635376
0.0786133
0.08007810000000001
0.071228
0.057251
0.0402222
0.0286255
0.0269775
0.038085900000000006
0.0532227
0.0664673
0.07189939999999999
0.0674438
0.0574341
0.0435791
0.0281372
0.0200806
0.0235596
0.032958999999999995
0.041748
0.0449829
0.0426025
0.0390625
0.0374146
0.037231400000000005
0.0432129
0.0496216
0.0498657
0.0471191
0.0408325
0.0323486
0.0279541
0.0286865
0.0343018
0.039917
0.0443726
0.0449829
0.0442505
0.0424805
0.0345459
0.0211182
0.0108032
0.00921631
0.0217896
0.0410767
0.0560913
0.0618896
0.0522461
0.0353394
0.0192261
0.012085
0.00964355
0.0078125
0.0108032
0.0214844
0.040405300000000005
0.06060790000000001
0.06951900000000001
0.0635986
0.0447388
0.0197144
0.0007324219999999999
-0.00421143
0.00415039
0.0216064
0.0446777
0.061767599999999985
0.0635986
0.0510254
0.0285034
0.00537109
-0.000244141
0.016113299999999997
0.0422363
0.0588989
0.0657349
0.057251
0.0425415
0.034789999999999995
0.038208
0.0446777
0.0455933
0.039856
0.0397339
0.043335000000000005
0.0430298
0.0386963
0.0342407
0.029541
0.031311
0.0404663
0.0447388
0.0444946
0.039917
0.036193800000000005
0.0344849
0.0379639
0.041992199999999986
0.0454102
0.0534058
0.06610110000000001
0.0755005
0.0674438
0.0464478
0.0250854
0.015197799999999997
0.024231
0.0411987
0.0533447
0.0544434
0.0429688
0.0302734
0.0285034
0.0328979
0.038208
0.0390015
0.0357666
0.0375977
0.0424194
0.0452271
0.0460205
0.046875
0.049804699999999986
0.0525513
0.0558472
0.0612793
0.06463619999999999
0.056640599999999985
0.044067400000000014
0.0378418
0.0409546
0.05242919999999999
0.0611572
0.0593872
0.0446777
0.0296631
0.0261841
0.0339966
0.043335000000000005
0.0473633
0.048217800000000005
0.0500488
0.05242919999999999
0.053833000000000006
0.0493774
0.0447388
0.0484009
0.0636597
0.0772705
0.08117680000000001
0.08227539999999997
0.0769653
0.07135010000000001
0.0708618
0.07733150000000001
0.0858765
0.0924683
0.0961304
0.0938721
0.0857544
0.0726318
0.059082
0.0498657
0.0437012
0.0379028
0.0305176
0.0230103
0.017028799999999997
0.0113525
0.00726318
0.009033200000000002
0.019043
0.031555200000000005
0.036377
0.026367200000000004
0.0108032
0.0012207
0.00732422
0.0328979
0.0626221
0.06665039999999997
0.0474243
0.013855
-0.00982666
-0.00744629
0.00915527
0.0195923
0.020874
0.0222168
0.0372925
0.0856323
0.18396
0.355408
0.585022
0.818481
0.985229
1.00513
0.850952
0.577454
0.284546
0.06488039999999999
-0.0360718
-0.0345459
0.02771
0.0934448
0.127075
0.12725799999999998
0.0994263
0.0673218
0.053833000000000006
0.057373
0.0709229
0.0876465
0.0973511
0.0941772
0.08355710000000001
0.072876
0.06591799999999999
0.0650024
0.0652466
0.06542970000000001
0.0702515
0.0765991
0.0801392
0.0883789
0.0970459
0.098999
0.0943604
0.08435060000000001
0.0734863
0.0701294
0.0700073
0.0682373
0.071167
0.0804443
0.090332
0.0960083
0.0968018
0.0917358
0.08416749999999999
0.0859375
0.0952148
0.106812
0.115662
0.120789
0.122925
0.128113
0.133301
0.134277
0.12548800000000002
0.122437
0.13030999999999998
0.145874
0.16583299999999998
0.186401
0.204956
0.21991
0.230713
0.238708
0.24353
0.249146
0.259155
0.276062
0.298706
0.31842
0.332092
0.340088
0.339722
0.3302
0.313599
0.294312
0.280457
0.2677
0.253235
0.234375
0.206421
0.172729
0.141235
0.118835
0.109558
0.111877
0.106995
0.0971069
0.08770750000000001
0.08026119999999999
0.07653810000000001
0.078186
0.0794678
0.0734863
0.0654907
0.0585327
0.0517578
0.0576172
0.069458
0.07440189999999999
0.0723267
0.06951900000000001
0.0650635
0.0597534
0.057251
0.0583496
0.060791
0.06323240000000001
0.0634155
0.06463619999999999
0.06793210000000001
0.07299800000000001
0.0733032
0.06988530000000001
0.0648193
0.0615845
0.0678711
0.0795898
0.08697510000000001
0.086792
0.0784302
0.0669556
0.0606689
0.0593872
0.0618896
0.0682373
0.0813599
0.088562
0.09002689999999999
0.08489989999999999
0.0773926
0.0700684
0.06164550000000001
0.0523071
0.0469971
0.0528564
0.0596924
0.0638428
0.060424800000000015
0.049682599999999986
0.0378418
0.031860400000000004
0.035461400000000004
0.043335000000000005
0.0466309
0.0449829
0.0419312
0.041687
0.041320800000000005
0.0379028
0.036499
0.0507812
0.0627441
0.0585938
0.046814
0.0234375
0.0032959000000000005
0.00494385
0.0195312
0.034668
0.0443115
0.048217800000000005
0.0476685
0.0499268
0.049987800000000006
0.044067400000000014
0.031860400000000004
0.020813
0.0189209
0.0261841
0.0385742
0.0563965
0.06579589999999999
0.0626221
0.0463257
0.0216064
0.00372314
0.000671387
0.00500488
0.0144653
0.0292969
0.0389404
0.0368042
0.0256958
0.0134277
0.00952148
0.0148315
0.0219116
0.0256958
0.0268555
0.0283203
0.0317383
0.0372925
0.0383301
0.0337524
0.024231
0.0185547
0.0247192
0.0352783
0.0422974
0.0389404
0.0269775
0.0139771
0.00836182
0.0149536
0.0283203
0.0424194
0.0466309
0.0432739
0.036193800000000005
0.0296631
0.0244751
0.025634800000000003
0.032714799999999995
0.0422974
0.0507812
0.052063
0.0466919
0.041442900000000005
0.0447388
0.0518188
0.0557251
0.0561523
0.0461426
0.0289307
0.0172729
0.0198975
0.0299683
0.0432739
0.0585938
0.0658569
0.0636597
0.0575562
0.0582886
0.06024169999999999
0.0579834
0.0474243
0.02771
0.0164185
0.0286255
0.0552979
0.07592769999999999
0.08233639999999999
0.07397460000000003
0.060729999999999985
0.052734400000000015
0.046875
0.0456543
0.043945300000000014
0.0443115
0.0515137
0.0629883
0.06781010000000001
0.0640869
0.0552979
0.052917499999999985
0.0583496
0.0578613
0.0549316
0.053955099999999985
0.0528564
0.0510254
0.0519409
0.05505369999999999
0.0625
0.07073969999999999
0.07714839999999999
0.0748901
0.06842039999999999
0.0662842
0.06701660000000001
0.06781010000000001
0.06518550000000001
0.0541382
0.0415039
0.0321655
0.0388184
0.0523682
0.0650635
0.0758667
0.08416749999999999
0.0830688
0.07769780000000001
0.0708618
0.06469730000000001
0.0670776
0.0714111
0.0726318
0.07189939999999999
0.06610110000000001
0.0561523
0.0479126
0.0454712
0.050354
0.060546900000000015
0.06793210000000001
0.07250980000000001
0.08142089999999999
0.0932617
0.103027
0.106323
0.0975342
0.08398439999999999
0.0708008
0.0692139
0.0767822
0.0862427
0.0932007
0.0976562
0.103882
0.107544
0.104858
0.0970459
0.0914307
0.0933838
0.0987549
0.0979614
0.0891724
0.07733150000000001
0.0643311
0.051696800000000015
0.0438843
0.0405273
0.0389404
0.0389404
0.0400391
0.0400391
0.0383301
0.0338745
0.029480000000000006
0.0281372
0.0333862
0.0410156
0.0455322
0.048584
0.046936
0.0432739
0.0422363
0.041626
0.0466919
0.0552368
0.0586548
0.0560913
0.0518188
0.043335000000000005
0.049255400000000005
0.092041
0.181702
0.32757600000000003
0.531433
0.758606
0.944214
1.00128
0.8911129999999999
0.637878
0.33520500000000003
0.0882568
-0.0485229
-0.06927489999999999
-0.00750732
0.0755615
0.138
0.159607
0.146423
0.121155
0.104187
0.100037
0.104309
0.108704
0.107544
0.106934
0.105042
0.104187
0.115356
0.124817
0.125183
0.122437
0.10968
0.0946045
0.0897217
0.09790039999999997
0.11145
0.119019
0.121399
0.119324
0.112793
0.104004
0.0974731
0.105042
0.120422
0.133423
0.131897
0.117798
0.103394
0.0999146
0.108826
0.124084
0.142029
0.15625
0.164856
0.168762
0.165771
0.156799
0.147339
0.144043
0.152954
0.166382
0.178101
0.189636
0.203491
0.222656
0.244263
0.260925
0.264771
0.259277
0.257263
0.262024
0.278503
0.30426
0.331116
0.361572
0.385681
0.395508
0.386047
0.354431
0.320862
0.29895
0.288574
0.277832
0.265259
0.252869
0.23773200000000005
0.21783400000000006
0.19281
0.163635
0.138794
0.121277
0.107178
0.0982666
0.0960083
0.100891
0.116577
0.13531500000000002
0.136292
0.119568
0.0874023
0.055542
0.0444946
0.057373
0.07446289999999997
0.0931396
0.106323
0.105896
0.0983276
0.08789060000000001
0.07910160000000001
0.07769780000000001
0.0788574
0.0796509
0.0874634
0.104004
0.117737
0.118958
0.109497
0.0913086
0.0721436
0.0645752
0.0704346
0.0874634
0.107483
0.121033
0.12207
0.115601
0.101013
0.08496089999999999
0.07397460000000003
0.0701294
0.0779419
0.0889282
0.0968628
0.102173
0.104065
0.0996094
0.0909424
0.0805664
0.0714722
0.0637207
0.0665283
0.0858154
0.10321
0.10614
0.097168
0.07324220000000001
0.0497437
0.0401001
0.0428467
0.0547485
0.07073969999999999
0.0795898
0.0765991
0.0678711
0.064209
0.0669556
0.07250980000000001
0.0755615
0.0727539
0.0671997
0.0610352
0.057251
0.0587769
0.0636597
0.06762699999999999
0.0626831
0.0565186
0.052734400000000015
0.053710900000000006
0.0628052
0.0705566
0.07592769999999999
0.0740967
0.0637207
0.0571899
0.0612793
0.0706787
0.07745360000000001
0.07336430000000001
0.057373
0.038208
0.025634800000000003
0.0258789
0.041870099999999986
0.0637817
0.078186
0.08184810000000001
0.07592769999999999
0.06463619999999999
0.0534058
0.0535889
0.0608521
0.0703125
0.0719604
0.06213380000000001
0.0533447
0.0534058
0.056640599999999985
0.0613403
0.0637817
0.060546900000000015
0.0608521
0.06311040000000001
0.062561
0.0650024
0.0678711
0.06781010000000001
0.0690308
0.0708618
0.0708008
0.07208250000000001
0.07623289999999999
0.0792236
0.0783081
0.0742188
0.06469730000000001
0.0540161
0.050354
0.0516357
0.0567017
0.06665039999999997
0.0819702
0.0952148
0.09790039999999997
0.0912476
0.0808716
0.0738525
0.07281489999999999
0.0734253
0.0708618
0.0593872
0.0459595
0.0432739
0.0543823
0.0678711
0.0755615
0.07391360000000001
0.07189939999999999
0.07733150000000001
0.0861206
0.0916748
0.0908203
0.0886841
0.0875854
0.0845337
0.0842896
0.0845947
0.0844727
0.08551030000000001
0.08514400000000001
0.08966060000000001
0.0967407
0.098877
0.0909424
0.0805664
0.0720215
0.0703735
0.0805664
0.102051
0.12323
0.129944
0.12616
0.114929
0.10376
0.0995483
0.098999
0.100464
0.0985107
0.0961304
0.0958862
0.0957031
0.0916748
0.0813599
0.0637207
0.0443726
0.0397339
0.0410767
0.052063
0.06842039999999999
0.08105470000000001
0.08221439999999999
0.074646
0.06951900000000001
0.0706177
0.0734863
0.0756836
0.07324220000000001
0.0714111
0.07543949999999999
0.08105470000000001
0.0875854
0.0861816
0.0769653
0.062561
0.042175300000000006
0.0299683
0.0396729
0.0626831
0.102783
0.17138699999999998
0.289917
0.477905
0.711121
0.916626
1.01196
0.942993
0.7229
0.436646
0.179504
0.0203857
-0.0296021
-0.00616455
0.0547485
0.114502
0.15399200000000002
0.169312
0.16351300000000002
0.15124500000000002
0.139465
0.13183599999999998
0.13256800000000002
0.136719
0.137207
0.13385
0.125244
0.118896
0.116333
0.114624
0.123657
0.138855
0.154114
0.16449
0.163757
0.157654
0.14715599999999998
0.134277
0.123962
0.125122
0.137878
0.153442
0.161133
0.159424
0.155884
0.14746099999999998
0.137512
0.131958
0.130859
0.133484
0.14361600000000002
0.154419
0.160461
0.165222
0.172119
0.184082
0.201477
0.215271
0.216553
0.217285
0.215515
0.215515
0.21759
0.21637
0.219788
0.231445
0.24908400000000006
0.267395
0.282043
0.297668
0.311829
0.318298
0.32800300000000004
0.346191
0.37085
0.392883
0.404785
0.401489
0.388123
0.372498
0.35791
0.34314
0.323669
0.296204
0.268616
0.248535
0.232544
0.214539
0.196289
0.179993
0.168579
0.162231
0.156799
0.147583
0.138489
0.13269
0.131226
0.130737
0.129883
0.126709
0.11554
0.106689
0.106323
0.107056
0.109558
0.112305
0.114136
0.113892
0.110962
0.108521
0.109375
0.116394
0.12561
0.129089
0.132141
0.129761
0.124329
0.118103
0.113098
0.10986300000000003
0.108398
0.109131
0.114197
0.12262
0.13147
0.134705
0.131714
0.130188
0.124023
0.116455
0.112427
0.115906
0.123962
0.127747
0.128967
0.122253
0.111755
0.104675
0.100464
0.100891
0.110535
0.117432
0.118652
0.119568
0.112793
0.104797
0.0987549
0.0950928
0.0992432
0.107849
0.110229
0.104675
0.0983887
0.0960083
0.097229
0.09552
0.0931396
0.0886841
0.085022
0.0847168
0.0908813
0.0925903
0.0892944
0.08673099999999999
0.0899048
0.0986328
0.107422
0.102844
0.0861206
0.06622310000000001
0.050415
0.0446167
0.051147500000000005
0.06750489999999999
0.0820312
0.09002689999999999
0.0944824
0.0915527
0.0814819
0.0671997
0.0544434
0.049682599999999986
0.0551147
0.0664062
0.0787354
0.08813480000000001
0.0913696
0.08807369999999999
0.07598880000000001
0.0620728
0.049804699999999986
0.0456543
0.0474854
0.0476074
0.0501709
0.0476074
0.0406494
0.0365601
0.038085900000000006
0.041137699999999985
0.043945300000000014
0.0490112
0.0551758
0.0620728
0.0662842
0.06658939999999999
0.06292719999999999
0.0540771
0.040405300000000005
0.0328369
0.0368652
0.0493164
0.0606689
0.0599365
0.0470581
0.0300903
0.0184326
0.0180054
0.0238037
0.0350342
0.0445557
0.0491943
0.0513306
0.0540771
0.0571289
0.0559082
0.0504761
0.0444946
0.0352173
0.0236816
0.0170898
0.0246582
0.038269
0.0467529
0.0499268
0.0460815
0.0422363
0.0404663
0.0393677
0.0360718
0.03302
0.032775900000000004
0.0365601
0.038269
0.037353500000000005
0.033081099999999995
0.0280762
0.0308838
0.0411987
0.0528564
0.0570068
0.0481567
0.0353394
0.0311279
0.0322876
0.0385742
0.0432739
0.0404663
0.0292358
0.0198975
0.019043
0.0219116
0.024231
0.0262451
0.0317993
0.0449219
0.0619507
0.0792236
0.086792
0.07733150000000001
0.0556641
0.0351562
0.0321655
0.052124
0.07910160000000001
0.0916138
0.0841064
0.062561
0.0441895
0.0413818
0.0552979
0.07299800000000001
0.0824585
0.0786133
0.0620117
0.0408936
0.027832
0.0201416
0.019104
0.027832
0.0316772
0.0251465
0.0134888
0.00360107
0.00012207
0.0111084
0.0239868
0.0289307
0.0247192
0.015686000000000002
0.000854492
-0.00567627
-0.000793457
0.010376
0.0176392
0.0187378
0.0182495
0.0213013
0.0217896
0.015930200000000002
0.010437
0.0130615
0.0296631
0.0651245
0.119568
0.20459
0.345459
0.5495
0.7827149999999999
0.957825
0.98584
0.8322139999999999
0.54895
0.246765
0.0249023
-0.0784302
-0.0731812
-0.00170898
0.07397460000000003
0.1203
0.127441
0.0983276
0.0609131
0.0378418
0.0366821
0.0509033
0.07110599999999999
0.0812988
0.07598880000000001
0.0565186
0.0367432
0.0233765
0.0203247
0.0338135
0.054992700000000005
0.07360839999999999
0.08026119999999999
0.07440189999999999
0.06530760000000001
0.0577393
0.0507812
0.0477295
0.048950199999999985
0.0470581
0.0422974
0.0403442
0.0477905
0.0623169
0.07312010000000001
0.0795288
0.0784302
0.0716553
0.0620728
0.0548096
0.053955099999999985
0.0575562
0.0648193
0.0780029
0.0904541
0.0995483
0.104187
0.0994263
0.0899048
0.0886841
0.101562
0.116943
0.133179
0.150635
0.163147
0.173401
0.185242
0.196106
0.205811
0.210815
0.216797
0.23175
0.259521
0.292297
0.314209
0.31189
0.288147
0.257202
0.23822
0.23773200000000005
0.24450700000000006
0.246643
0.240051
0.221558
0.196655
0.168152
0.133911
0.0993042
0.07617189999999999
0.06555180000000001
0.060424800000000015
0.0578613
0.0528564
0.0410767
0.0227051
0.00427246
-0.00341797
0.000671387
0.00567627
0.0136108
0.0268555
0.036132800000000014
0.0407104
0.0328369
0.00976562
-0.0152588
-0.0251465
-0.023193400000000003
-0.0123291
0.0010376
0.015441899999999996
0.0307007
0.0375977
0.0349121
0.0219116
-0.00378418
-0.022949200000000003
-0.024292
-0.016052200000000003
-0.00286865
0.00750732
0.0132446
0.0184937
0.020874
0.0194702
0.0114136
0.00469971
-0.00140381
-0.00396729
0.0020752
0.00823975
0.00946045
0.010681200000000002
0.00598145
0.00146484
-0.0032959000000000005
-0.0123901
-0.0150757
-0.00653076
0.00616455
0.00982666
0.00274658
-0.012207
-0.0258789
-0.0288086
-0.0184937
-0.00274658
0.00860596
0.00567627
-0.0186768
-0.0474854
-0.0656738
-0.0626831
-0.0467529
-0.0292358
-0.0204468
-0.0222778
-0.0324097
-0.041626
-0.0437012
-0.0402222
-0.0390625
-0.035522500000000005
-0.0286255
-0.0202026
-0.013916
-0.0125122
-0.0193481
-0.032531700000000004
-0.0487061
-0.055481
-0.0479736
-0.0321655
-0.020874
-0.0216064
-0.0324707
-0.0477295
-0.0541382
-0.0510864
-0.0473633
-0.0383301
-0.0339355
-0.036438
-0.0426636
-0.048217800000000005
-0.053833000000000006
-0.0559082
-0.0502319
-0.0374756
-0.0302734
-0.032714799999999995
-0.0425415
-0.0493164
-0.0448608
-0.033508300000000005
-0.0268555
-0.0296631
-0.0387573
-0.0507812
-0.0571899
-0.0529785
-0.0431519
-0.0379639
-0.0388794
-0.0465088
-0.0534668
-0.0493774
-0.0427856
-0.034423800000000004
-0.028869599999999995
-0.0252686
-0.022399900000000004
-0.0213013
-0.0220947
-0.0291748
-0.0411987
-0.048217800000000005
-0.041870099999999986
-0.032714799999999995
-0.0324097
-0.0376587
-0.0473633
-0.0535889
-0.050415
-0.0435181
-0.0376587
-0.032653800000000004
-0.0292969
-0.0292969
-0.0273438
-0.0182495
-0.0120239
-0.0145874
-0.0251465
-0.035949699999999994
-0.0379639
-0.033508300000000005
-0.028442400000000007
-0.0252686
-0.0304565
-0.038208
-0.0368652
-0.02771
-0.014099100000000003
-0.00219727
-0.000488281
-0.00854492
-0.0183105
-0.0256958
-0.0269775
-0.022644
-0.015930200000000002
-0.0098877
-0.0100708
-0.0158691
-0.0197144
-0.0211792
-0.0203857
-0.0137939
-0.0032959000000000005
0.00177002
0.000244141
-0.00244141
-0.0067749
-0.0115967
-0.0124512
-0.0118408
-0.0124512
-0.0124512
-0.0161743
-0.0231323
-0.0228882
-0.0182495
-0.014221200000000003
-0.0152588
-0.0192261
-0.0211792
-0.0201416
-0.0157471
-0.00604248
0.00463867
0.0120239
0.00598145
-0.00512695
-0.00805664
0.000244141
0.00799561
0.00878906
0.000427246
-0.015197799999999997
-0.0233765
-0.0212402
-0.016357399999999998
-0.0106201
-0.00476074
-0.00305176
-0.00213623
0.000610352
0.000793457
0.0022583000000000004
0.00689697
0.0108643
0.0139771
0.0175781
0.0198364
0.024231
0.0209961
0.00463867
-0.0119019
-0.021667500000000003
-0.0184937
-0.00964355
0.000366211
0.00805664
0.00927734
0.00744629
0.00415039
0.00769043
0.0171509
0.0245972
0.0206909
0.00860596
-0.00158691
-0.00256348
0.00292969
0.0128784
0.0175781
0.0124512
0.00366211
-0.00256348
-0.00463867
-0.00360107
-0.00189209
0.00128174
0.012146
0.0195923
0.0181274
0.012146
0.005737300000000001
0.00323486
0.00817871
0.0111084
0.00756836
0.000366211
-0.00579834
-0.00415039
0.00567627
0.0143433
0.0143433
0.00549316
-0.00140381
0.000549316
0.00817871
0.015319799999999996
0.0181274
0.0194702
0.018066400000000003
0.0131226
0.00793457
0.00250244
-6.10352e-05
0.00604248
0.0159912
0.029541
0.0437622
0.0480347
0.0404663
0.0303955
0.0236206
0.024292
0.0354004
0.052124
0.0649414
0.06616210000000003
0.057251
0.0407104
0.0237427
0.00842285
-0.00335693
-0.0141602
-0.0211792
-0.0197754
-0.0145874
-0.00915527
-0.00250244
-0.00152588
-0.00866699
-0.00933838
-0.00317383
-0.000488281
-0.00854492
-0.0241699
-0.0387573
-0.0402222
-0.0248413
-0.0055542000000000005
0.00732422
0.00732422
-0.00231934
-0.0231323
-0.0452271
-0.0597534
-0.0581665
-0.0396118
0.00012207
0.0598145
0.138672
0.258118
0.432129
0.650146
0.8494870000000001
0.938477
0.857361
0.622437
0.318359
0.0525513
-0.0968628
-0.120789
-0.0671387
0.00482178
0.05432130000000001
0.0705566
0.0668335
0.0596924
0.0571289
0.05792240000000001
0.0633545
0.06616210000000003
0.05780030000000001
0.0442505
0.0280151
0.016723599999999998
0.0192871
0.0393677
0.06427000000000001
0.0737915
0.0611572
0.0390625
0.0216064
0.018066400000000003
0.024292
0.0335693
0.05242919999999999
0.07598880000000001
0.0913696
0.08752439999999999
0.0687866
0.0372925
0.0193481
0.0199585
0.0331421
0.0504761
0.0640259
0.078064
0.0952759
0.110474
0.110901
0.0899048
0.0578613
0.0375977
0.0422363
0.0612793
0.08343510000000001
0.104858
0.12725799999999998
0.149536
0.17565899999999998
0.198608
0.201904
0.183167
0.153442
0.12793
0.124573
0.146301
0.180664
0.220215
0.261414
0.291565
0.303711
0.295532
0.27575700000000003
0.257263
0.25415
0.265198
0.280457
0.287048
0.278748
0.264099
0.263916
0.27270500000000003
0.266296
0.232483
0.168152
0.093811
0.0383911
0.0188599
0.0296631
0.0530396
0.06933589999999999
0.07073969999999999
0.057373
0.0402832
0.0287476
0.0259399
0.0292358
0.0358276
0.0402222
0.0375977
0.0321655
0.0291748
0.0405884
0.0645752
0.0898438
0.0997314
0.090332
0.055542
0.0137939
-0.0112305
-0.0194702
-0.00994873
0.00671387
0.0236206
0.035949699999999994
0.0406494
0.0422363
0.043335000000000005
0.044799800000000015
0.0471191
0.0596313
0.07598880000000001
0.0859375
0.08343510000000001
0.0635986
0.0374756
0.025817900000000005
0.0297241
0.0401611
0.048950199999999985
0.0559082
0.0623779
0.06329349999999999
0.0535278
0.0394897
0.0265503
0.016052200000000003
0.015441899999999996
0.0261841
0.045105
0.0610962
0.065979
0.0561523
0.038269
0.0216064
0.016357399999999998
0.0200195
0.0275269
0.0328979
0.0314941
0.0283203
0.0255127
0.0244141
0.0201416
0.0182495
0.0202637
0.017334
0.0161743
0.024108900000000003
0.030334500000000007
0.0383301
0.0345459
0.0172729
0.000793457
-0.00231934
0.00524902
0.014526400000000004
0.022583
0.030334500000000007
0.0377808
0.0408325
0.0391846
0.0333862
0.0241699
0.0098877
-0.00286865
-0.0123291
-0.011657700000000002
0.00610352
0.0349731
0.0618286
0.07360839999999999
0.0598145
0.026062
-0.00891113
-0.0296631
-0.031555200000000005
-0.014892600000000002
0.0130005
0.0353394
0.045105
0.0377808
0.022033700000000003
0.0115356
0.00811768
0.00738525
0.00665283
0.0108643
0.0292358
0.0528564
0.0702515
0.0730591
0.0552368
0.0216064
-0.00115967
-0.0055542000000000005
0.0078125
0.026062
0.0396729
0.0512695
0.0509033
0.041687
0.0309448
0.022644
0.0219727
0.02771
0.0292358
0.0265503
0.029541
0.0387573
0.0532227
0.062561
0.0608521
0.0524902
0.0463257
0.0457153
0.0465698
0.041992199999999986
0.0313721
0.0280151
0.0352173
0.0478516
0.0523682
0.0460815
0.036254900000000014
0.0287476
0.0250854
0.0247803
0.0292358
0.041137699999999985
0.057373
0.0710449
0.07543949999999999
0.0698242
0.0585938
0.0435791
0.0339966
0.0360107
0.0466309
0.0534668
0.051147500000000005
0.0427856
0.0325928
0.0299072
0.0386963
0.050415
0.057251
0.0596924
0.059509300000000015
0.0570679
0.0592651
0.0614624
0.0622559
0.0635376
0.0648193
0.0609741
0.0548706
0.0523071
0.0559082
0.0601196
0.0618896
0.0614624
0.06463619999999999
0.07128910000000001
0.0764771
0.0690918
0.0583496
0.0488892
0.0454102
0.048584
0.059021
0.067688
0.06469730000000001
0.057678199999999985
0.0534668
0.052795400000000006
0.0580444
0.0678711
0.07592769999999999
0.0779419
0.0749512
0.06988530000000001
0.06427000000000001
0.0650024
0.07189939999999999
0.0753784
0.0737915
0.0719604
0.0650635
0.057678199999999985
0.0579834
0.062439
0.0671997
0.0689087
0.0674438
0.0684814
0.0794067
0.0941162
0.10571300000000003
0.111694
0.109375
0.0977783
0.0827026
0.0699463
0.0704956
0.0861816
0.10736099999999997
0.124451
0.131958
0.12561
0.111328
0.102112
0.10022
0.104431
0.110779
0.117004
0.118835
0.115906
0.10571300000000003
0.088562
0.07336430000000001
0.0650635
0.0653687
0.07269289999999999
0.0801392
0.0778198
0.0691528
0.0582886
0.0582275
0.0706787
0.0802002
0.0872803
0.08300779999999999
0.07324220000000001
0.06671139999999999
0.06152340000000001
0.06329349999999999
0.0723877
0.0856323
0.0909424
0.0854492
0.0704346
0.049804699999999986
0.0350342
0.0394287
0.06616210000000003
0.124329
0.219604
0.362183
0.558289
0.774353
0.934448
0.962219
0.831665
0.584717
0.313232
0.104736
-0.00128174
-0.0098877
0.0377197
0.09741210000000003
0.145874
0.170654
0.170349
0.156799
0.140381
0.132874
0.134399
0.140747
0.149841
0.159363
0.163391
0.157471
0.143799
0.132751
0.131348
0.142151
0.163147
0.180664
0.183655
0.17138699999999998
0.14868199999999998
0.128662
0.123352
0.13305699999999998
0.153076
0.16986099999999998
0.178162
0.17419400000000002
0.155884
0.137817
0.132446
0.13983199999999998
0.15466300000000002
0.175293
0.196899
0.21167
0.212158
0.199402
0.183105
0.175781
0.175293
0.17413299999999998
0.174438
0.179016
0.196716
0.221802
0.241028
0.250244
0.248047
0.243652
0.245605
0.261475
0.286011
0.308472
0.328125
0.343445
0.350769
0.350891
0.350281
0.356812
0.37384
0.392273
0.406433
0.406067
0.39563
0.381836
0.367615
0.354614
0.333984
0.30481
0.273254
0.24884
0.236206
0.230652
0.219604
0.205261
0.192261
0.17865
0.16217
0.147705
0.137939
0.135437
0.145996
0.16155999999999998
0.170471
0.16461199999999998
0.146851
0.129028
0.118469
0.125854
0.142395
0.151855
0.154419
0.151978
0.148865
0.14141800000000002
0.13684100000000002
0.134766
0.134888
0.130615
0.12561
0.124023
0.129883
0.147644
0.174011
0.201294
0.21521
0.20105
0.168274
0.13684100000000002
0.117798
0.119568
0.137512
0.158325
0.17871099999999998
0.190002
0.18634
0.175049
0.160645
0.151062
0.14679
0.144958
0.145508
0.152893
0.171631
0.195007
0.211731
0.204773
0.17511
0.14135699999999998
0.121887
0.122681
0.132629
0.147278
0.15771500000000002
0.158325
0.152832
0.143799
0.133606
0.13030999999999998
0.136169
0.145264
0.15545699999999998
0.169922
0.181152
0.177307
0.163635
0.145447
0.13226300000000002
0.130615
0.136658
0.141785
0.14221199999999998
0.132812
0.12323
0.12451199999999997
0.137817
0.151672
0.158142
0.15863
0.151367
0.14068599999999998
0.140198
0.144348
0.14819300000000002
0.151611
0.146606
0.139099
0.137573
0.141235
0.142822
0.145874
0.148621
0.140015
0.124634
0.11138900000000003
0.103821
0.10675
0.118225
0.133606
0.153198
0.166504
0.161194
0.144897
0.126404
0.118958
0.124146
0.134155
0.141785
0.147827
0.15704300000000002
0.15979000000000002
0.150391
0.132019
0.111023
0.102783
0.114624
0.135559
0.149536
0.14715599999999998
0.13378900000000002
0.121399
0.118591
0.125977
0.135925
0.1427
0.146484
0.144531
0.133728
0.12439
0.113586
0.10083
0.0940552
0.0970459
0.109192
0.123352
0.13336199999999998
0.138
0.136597
0.131348
0.122742
0.118164
0.118896
0.120789
0.123108
0.125122
0.127197
0.129028
0.128357
0.12548800000000002
0.121887
0.122681
0.127441
0.130554
0.132751
0.12561
0.112488
0.108459
0.117554
0.140503
0.16333
0.169128
0.157959
0.138794
0.12658699999999998
0.130737
0.14715599999999998
0.163574
0.16449
0.145813
0.116577
0.0919189
0.0825806
0.0792236
0.074585
0.0703125
0.06689450000000001
0.06689450000000001
0.07324220000000001
0.0857544
0.0997925
0.106995
0.107178
0.0946655
0.0769653
0.06842039999999999
0.067688
0.0743408
0.0836792
0.0858765
0.0792236
0.07312010000000001
0.0717163
0.069458
0.0594482
0.0459595
0.0392456
0.0463867
0.06927489999999999
0.105347
0.15924100000000002
0.238464
0.364563
0.556763
0.7935180000000001
1.00391
1.08636
0.979309
0.7075199999999999
0.373901
0.0984497
-0.0476685
-0.0675659
-0.012207
0.0610962
0.117798
0.148376
0.15783699999999998
0.154053
0.13610799999999998
0.120789
0.116211
0.116577
0.118591
0.117188
0.110535
0.103882
0.101318
0.104431
0.111023
0.118286
0.124329
0.126343
0.122559
0.121033
0.113403
0.10614
0.104919
0.112
0.12207
0.12323
0.116333
0.108521
0.107483
0.114624
0.123474
0.125671
0.118286
0.10888699999999997
0.109558
0.124146
0.138672
0.142761
0.136414
0.12207
0.113892
0.117065
0.128357
0.150269
0.177124
0.19635
0.199341
0.185364
0.167969
0.160217
0.170715
0.197205
0.232849
0.262085
0.273438
0.272156
0.268311
0.271606
0.282532
0.297363
0.315552
0.328308
0.33618200000000004
0.339233
0.337952
0.332214
0.321777
0.305786
0.285828
0.26001
0.230835
0.202759
0.181702
0.161987
0.13989300000000002
0.116028
0.0922852
0.0784912
0.0864258
0.102661
0.114136
0.110962
0.0894165
0.0585327
0.0377808
0.0375366
0.0531006
0.0705566
0.078186
0.08050539999999999
0.0787354
0.0727539
0.06610110000000001
0.0581055
0.052917499999999985
0.0559692
0.06658939999999999
0.08154299999999999
0.0953979
0.106995
0.105652
0.0871582
0.0662842
0.045898400000000006
0.0338745
0.0402222
0.0571289
0.072876
0.0796509
0.0780029
0.0762939
0.0803833
0.0847778
0.08404539999999999
0.0793457
0.07269289999999999
0.065979
0.0651245
0.0727539
0.0829468
0.0928955
0.0961914
0.0859985
0.06842039999999999
0.0530396
0.0446167
0.0448608
0.0551147
0.061767599999999985
0.0619507
0.0598755
0.05780030000000001
0.0563965
0.0536499
0.0465088
0.0424194
0.0442505
0.049682599999999986
0.0545654
0.0525513
0.0453491
0.033630400000000005
0.0292358
0.039917
0.0582886
0.06793210000000001
0.05694580000000001
0.0328369
0.0105591
0.00341797
0.0114136
0.026001
0.0452271
0.0549316
0.0500488
0.036499
0.0186157
0.00341797
6.10352e-05
0.0102539
0.0238037
0.0346069
0.035522500000000005
0.0289307
0.0201416
0.0155029
0.0164185
0.0143433
0.0114746
0.0130005
0.0123291
0.0114136
0.00738525
0.00109863
-0.00524902
-0.00878906
-0.00158691
0.0112305
0.0217285
0.0217285
0.014526400000000004
0.00665283
0.00665283
0.00726318
0.0088501
0.0113525
0.00512695
-0.00280762
-0.0101318
-0.0150757
-0.0114136
0.000671387
0.0135498
0.022949200000000003
0.0244751
0.017028799999999997
0.00592041
-0.0007324219999999999
0.00323486
0.0115356
0.016113299999999997
0.0172729
0.020813
0.0273438
0.028198200000000007
0.0264893
0.0181274
0.00396729
-0.00610352
-0.0100708
-0.00585938
0.00219727
0.0119629
0.0178223
0.019104
0.0162964
0.0107422
0.00592041
0.00860596
0.0183105
0.0274658
0.030334500000000007
0.0252075
0.0184326
0.013305700000000002
0.009033200000000002
0.00665283
0.0125732
0.0291748
0.0435181
0.052795400000000006
0.0466919
0.024108900000000003
-0.00244141
-0.0222778
-0.0228882
-0.00378418
0.0193481
0.0317383
0.031066900000000005
0.0197754
0.00830078
0.00701904
0.0178223
0.0319824
0.0401001
0.0402222
0.0391846
0.0328369
0.0256958
0.015686000000000002
0.00238037
-0.00238037
0.00726318
0.0224609
0.035461400000000004
0.0446777
0.0410156
0.0291138
0.0170898
0.011718799999999998
0.0161743
0.022522
0.0288086
0.0325928
0.0351562
0.0407715
0.0444336
0.0411987
0.0324707
0.0210571
0.0088501
0.0088501
0.0195312
0.0321045
0.0466919
0.0532227
0.052917499999999985
0.0466309
0.034118699999999995
0.0200806
0.012146
0.017028799999999997
0.0252686
0.034729
0.0422363
0.0445557
0.0408325
0.034057599999999986
0.0299683
0.0287476
0.0317383
0.032958999999999995
0.0375366
0.0430908
0.043457
0.0387573
0.0308838
0.0255127
0.0230103
0.024292
0.029785200000000005
0.0343018
0.036132800000000014
0.0328979
0.0250854
0.0256958
0.0370483
0.0476074
0.0562134
0.059082
0.0535889
0.0454102
0.0380249
0.0324707
0.0286255
0.0267334
0.0272217
0.035522500000000005
0.0427856
0.0497437
0.0510254
0.0454712
0.0441284
0.0524902
0.0587769
0.0637817
0.0637817
0.0544434
0.0429688
0.034118699999999995
0.034179699999999986
0.0410767
0.0505981
0.0606689
0.07312010000000001
0.0836182
0.0899658
0.0922852
0.08898930000000001
0.09002689999999999
0.0899048
0.0934448
0.0946655
0.0908813
0.0853271
0.0819092
0.0859985
0.0981445
0.102417
0.08886720000000001
0.0588379
0.0306396
0.0142822
0.0113525
0.0187378
0.028198200000000007
0.0319214
0.0342407
0.0409546
0.0518799
0.0586548
0.0557861
0.0374756
0.0181885
0.010498
0.0212402
0.0422363
0.064209
0.071228
0.0599365
0.031311
0.00421143
-0.0109863
-0.00811768
0.00500488
0.025817900000000005
0.0523682
0.09552
0.168213
0.285706
0.466858
0.692871
0.907043
1.02979
0.996094
0.80188
0.515686
0.242188
0.0635376
-0.00164795
0.0112305
0.0593872
0.102173
0.121948
0.125122
0.119202
0.109924
0.106506
0.105103
0.100708
0.0947876
0.0970459
0.10321
0.106934
0.110962
0.12145999999999997
0.13385
0.140808
0.137512
0.119385
0.0974731
0.0808716
0.078125
0.08935549999999999
0.110229
0.126221
0.126526
0.117554
0.104797
0.0992432
0.102173
0.108032
0.112366
0.117615
0.123779
0.130615
0.140869
0.146484
0.143494
0.135193
0.126831
0.124329
0.12616
0.13501
0.153198
0.173523
0.190613
0.199219
0.197754
0.190491
0.184814
0.187439
0.201782
0.226929
0.252197
0.263489
0.265381
0.268066
0.27636700000000003
0.290833
0.314392
0.336365
0.345825
0.348877
0.34729
0.346252
0.352539
0.360779
0.366272
0.358887
0.338379
0.307312
0.274963
0.250122
0.234985
0.227966
0.218872
0.207275
0.191101
0.167236
0.137878
0.11261
0.101318
0.105408
0.118591
0.13256800000000002
0.14263900000000002
0.14361600000000002
0.127686
0.109741
0.103577
0.107117
0.11731
0.126892
0.13104200000000002
0.12579300000000002
0.11853
0.112793
0.105957
0.103882
0.108032
0.111938
0.11554
0.120605
0.13104200000000002
0.13684100000000002
0.131653
0.12384
0.11438
0.11138900000000003
0.122742
0.141785
0.147217
0.13562000000000002
0.120972
0.116943
0.123901
0.134277
0.136292
0.124756
0.111633
0.106079
0.109741
0.120239
0.130981
0.135681
0.12915
0.117249
0.108521
0.107727
0.116638
0.130249
0.132507
0.121582
0.0965576
0.07373049999999999
0.0747681
0.0897217
0.101196
0.098999
0.08221439999999999
0.0637817
0.0588379
0.0643311
0.0755005
0.0856934
0.08935549999999999
0.09002689999999999
0.0936279
0.0952759
0.0947876
0.09375
0.0940552
0.0914307
0.0897217
0.0856934
0.0845337
0.0899658
0.0975342
0.0974731
0.0891724
0.0804443
0.0756836
0.0758667
0.0813599
0.0903931
0.0951538
0.0928345
0.0844727
0.0708618
0.0594482
0.0540771
0.0599976
0.07855219999999999
0.10437
0.118042
0.114136
0.0962524
0.0730591
0.0513916
0.040405300000000005
0.0375977
0.0447388
0.0584106
0.07470700000000001
0.0938721
0.10888699999999997
0.115967
0.10376
0.078186
0.0560913
0.0482788
0.0565186
0.0702515
0.0811157
0.0914307
0.103394
0.111938
0.114746
0.101379
0.0734863
0.0458374
0.0319214
0.0375366
0.0546265
0.07373049999999999
0.0876465
0.0969238
0.105103
0.10583499999999997
0.100769
0.0942993
0.09021
0.0894775
0.0891724
0.0892944
0.08953860000000001
0.0871582
0.08380130000000001
0.0863037
0.0921021
0.0919189
0.0864868
0.0783081
0.0717773
0.0718384
0.0803833
0.0941162
0.114319
0.128296
0.126221
0.106201
0.0804443
0.0614014
0.059021
0.0752563
0.0977783
0.115051
0.121521
0.123535
0.121277
0.112183
0.0997314
0.0848389
0.0715942
0.0717163
0.0856934
0.108276
0.12658699999999998
0.135925
0.125977
0.104065
0.08526610000000001
0.0820312
0.088562
0.0969849
0.103638
0.110657
0.11969
0.127441
0.12725799999999998
0.120911
0.11261
0.109497
0.116638
0.128418
0.128967
0.118042
0.098877
0.0855713
0.0866699
0.103333
0.121277
0.13256800000000002
0.130615
0.118164
0.0986938
0.0865479
0.0941162
0.110657
0.125427
0.133179
0.132202
0.126038
0.118347
0.114075
0.114563
0.120911
0.129272
0.131409
0.12738
0.124817
0.120239
0.116089
0.119446
0.119385
0.116577
0.11438
0.11676
0.128235
0.138977
0.141785
0.138062
0.131409
0.125977
0.127869
0.134399
0.142761
0.153015
0.16381800000000002
0.175903
0.1828
0.183167
0.175903
0.16961700000000002
0.175842
0.196228
0.215515
0.220764
0.207825
0.179871
0.153137
0.13677999999999998
0.13378900000000002
0.140076
0.14666700000000002
0.151001
0.152588
0.147949
0.131104
0.104553
0.08300779999999999
0.07507319999999999
0.083313
0.0980835
0.113098
0.12548800000000002
0.13000499999999998
0.124268
0.108826
0.0979614
0.0936279
0.0952759
0.102722
0.106628
0.105591
0.105896
0.101196
0.0948486
0.0925903
0.0950317
0.105225
0.126343
0.174377
0.26818800000000004
0.430054
0.655945
0.89917
1.06696
1.07867
0.917358
0.641479
0.355896
0.137451
0.0272827
0.0183716
0.07226560000000001
0.143494
0.20105
0.223999
0.207764
0.17565899999999998
0.151306
0.144653
0.149841
0.155884
0.152161
0.140442
0.134521
0.140259
0.153625
0.166626
0.176819
0.17926
0.17413299999999998
0.167786
0.158997
0.151428
0.144592
0.143738
0.150696
0.160645
0.16656500000000002
0.163696
0.159912
0.159668
0.162415
0.16864
0.184509
0.200684
0.205505
0.19751
0.176758
0.15802
0.158752
0.172424
0.187073
0.198975
0.209412
0.215149
0.223938
0.236328
0.24353
0.242065
0.235718
0.234314
0.238281
0.246399
0.261414
0.287903
0.317993
0.337952
0.345764
0.341797
0.335571
0.345886
0.366577
0.383301
0.398132
0.404907
0.405762
0.408081
0.409241
0.407349
0.400085
0.385986
0.369202
0.343994
0.31445300000000004
0.287598
0.265808
0.252136
0.237854
0.221497
0.204346
0.194702
0.191772
0.194092
0.187256
0.172546
0.151367
0.133606
0.128418
0.140625
0.154846
0.15698199999999998
0.149536
0.14032
0.136597
0.139221
0.148315
0.158875
0.159973
0.151917
0.139587
0.13256800000000002
0.136536
0.14666700000000002
0.154358
0.15625
0.1521
0.150146
0.154907
0.164795
0.172729
0.170166
0.15918
0.148804
0.151001
0.162659
0.16735799999999998
0.15979000000000002
0.146606
0.134766
0.135803
0.144775
0.15545699999999998
0.162537
0.160828
0.152527
0.147034
0.142822
0.13855
0.141907
0.151917
0.158936
0.15802
0.146057
0.12738
0.119202
0.126648
0.136719
0.1427
0.136719
0.12298599999999997
0.111938
0.115234
0.131409
0.143555
0.141052
0.125
0.107849
0.102234
0.109497
0.12085
0.128235
0.130615
0.129883
0.133728
0.14032
0.139648
0.128906
0.111023
0.0962524
0.0951538
0.105225
0.120728
0.137756
0.152344
0.157593
0.149109
0.135132
0.120605
0.109802
0.100403
0.0930786
0.08923339999999999
0.0923462
0.101685
0.110962
0.114441
0.116882
0.118286
0.121582
0.124207
0.120789
0.111328
0.104858
0.108948
0.125549
0.139465
0.13409400000000002
0.116089
0.10144
0.0961914
0.0999146
0.106812
0.109924
0.112549
0.116699
0.121704
0.125122
0.122437
0.11615
0.118225
0.129944
0.141785
0.14440899999999998
0.129944
0.114197
0.10583499999999997
0.10583499999999997
0.11084
0.116211
0.119873
0.124207
0.12646500000000002
0.119812
0.114014
0.107117
0.100952
0.101135
0.105957
0.113403
0.11792
0.123779
0.132812
0.13903800000000002
0.140381
0.135803
0.126282
0.116089
0.111206
0.109924
0.11261
0.11615
0.121582
0.12133800000000003
0.117493
0.113098
0.10968
0.102356
0.0979614
0.0991821
0.108704
0.11969
0.128967
0.132446
0.126953
0.113708
0.103821
0.104614
0.116089
0.139221
0.155884
0.155151
0.134277
0.103516
0.0823975
0.08435060000000001
0.101624
0.119446
0.12731900000000002
0.132812
0.139526
0.141296
0.137512
0.126343
0.119446
0.12561
0.140808
0.157104
0.170471
0.175842
0.17266800000000002
0.17419400000000002
0.186646
0.204834
0.212769
0.206604
0.186218
0.161072
0.144531
0.140625
0.141724
0.140076
0.133972
0.119263
0.101562
0.0913696
0.0877686
0.0894165
0.0991821
0.109985
0.114746
0.108643
0.0958252
0.0915527
0.0947266
0.0986328
0.101868
0.102051
0.0985718
0.0904541
0.0830688
0.07592769999999999
0.07250980000000001
0.0792847
0.0932617
0.0974731
0.0934448
0.078125
0.0608521
0.0567017
0.0717163
0.119263
0.210449
0.368042
0.5903930000000001
0.8220209999999999
0.981384
0.996765
0.846008
0.585327
0.308228
0.100586
0.00219727
0.00238037
0.056762699999999985
0.118652
0.164795
0.180054
0.170593
0.15173299999999998
0.138916
0.139404
0.14978
0.159363
0.161072
0.15478499999999998
0.148804
0.150146
0.15771500000000002
0.16394
0.164368
0.15332
0.137939
0.130859
0.13226300000000002
0.13983199999999998
0.14917
0.15698199999999998
0.16583299999999998
0.169189
0.16735799999999998
0.163696
0.161865
0.158142
0.15173299999999998
0.149353
0.148315
0.154907
0.16278099999999998
0.166382
0.16656500000000002
0.16272
0.15863
0.163879
0.176514
0.186157
0.191406
0.195007
0.20575
0.221436
0.232422
0.238831
0.235229
0.234802
0.244568
0.254211
0.26263400000000003
0.26855500000000004
0.273926
0.27941900000000003
0.296021
0.314758
0.329468
0.342102
0.353027
0.369568
0.384216
0.389282
0.390991
0.389465
0.387634
0.386169
0.384216
0.374268
0.358093
0.333313
0.29675300000000004
0.26062
0.228943
0.203857
0.19751
0.211731
0.223022
0.222656
0.202515
0.169312
0.138794
0.120667
0.114929
0.121704
0.13855
0.160156
0.16986099999999998
0.167603
0.15393099999999998
0.137817
0.12725799999999998
0.125244
0.135559
0.15173299999999998
0.158936
0.158447
0.15478499999999998
0.147766
0.138855
0.131287
0.127625
0.133545
0.152771
0.174011
0.180237
0.17218
0.155579
0.137512
0.129578
0.131897
0.13684100000000002
0.148499
0.166077
0.184204
0.18811
0.174805
0.153015
0.135986
0.130859
0.133667
0.14135699999999998
0.15448
0.16461199999999998
0.169189
0.164124
0.150269
0.137329
0.130859
0.130188
0.132446
0.137024
0.144104
0.14715599999999998
0.147522
0.148621
0.147217
0.141724
0.131104
0.121094
0.115479
0.120178
0.138184
0.15509
0.155212
0.136902
0.112488
0.0996704
0.103271
0.115601
0.13446
0.151978
0.162842
0.158447
0.14068599999999998
0.117432
0.10321
0.104858
0.11291500000000003
0.119324
0.122803
0.126526
0.133911
0.14746099999999998
0.162598
0.164856
0.14221199999999998
0.106018
0.07519529999999999
0.0649414
0.0814819
0.114136
0.14111300000000002
0.14819300000000002
0.137207
0.119202
0.10986300000000003
0.113708
0.126099
0.13684100000000002
0.13915999999999998
0.137268
0.132629
0.12561
0.120117
0.120178
0.12451199999999997
0.131714
0.141235
0.141724
0.133118
0.113525
0.0978394
0.0999756
0.113708
0.130981
0.143127
0.148499
0.149109
0.147522
0.150452
0.15918
0.165649
0.166687
0.162415
0.15551800000000002
0.161377
0.186035
0.209229
0.218506
0.208801
0.19043
0.175964
0.174988
0.191589
0.210449
0.217163
0.212708
0.198242
0.180786
0.160706
0.146729
0.138794
0.13208
0.128723
0.12646500000000002
0.130493
0.136047
0.139771
0.141724
0.139526
0.133484
0.124878
0.116333
0.111755
0.119263
0.130249
0.139709
0.14135699999999998
0.137024
0.132141
0.130249
0.13153099999999998
0.13610799999999998
0.141846
0.13677999999999998
0.119934
0.108215
0.107849
0.133911
0.2052
0.322083
0.485779
0.689758
0.8931879999999999
1.02521
1.0296
0.883057
0.617676
0.324829
0.107178
0.00360107
0.00323486
0.0704346
0.151855
0.209351
0.232239
0.228699
0.216125
0.208374
0.200928
0.198242
0.198486
0.198303
0.195129
0.192871
0.187622
0.185059
0.184631
0.185303
0.187195
0.189209
0.191711
0.19397
0.199951
0.210144
0.220215
0.22027600000000006
0.209717
0.196777
0.188354
0.189758
0.198792
0.21020500000000006
0.218079
0.219482
0.217102
0.213745
0.209961
0.208557
0.211548
0.221008
0.237244
0.251282
0.255127
0.245117
0.231934
0.222961
0.223877
0.240356
0.264648
0.282166
0.291443
0.299316
0.308655
0.32312
0.33886700000000003
0.354797
0.36261
0.360901
0.357849
0.360168
0.373779
0.399048
0.4205930000000001
0.426941
0.425415
0.426086
0.430908
0.436951
0.43988
0.427368
0.398621
0.362549
0.331116
0.312622
0.306946
0.299866
0.285583
0.264771
0.242065
0.225403
0.213867
0.204346
0.196228
0.182251
0.169373
0.168823
0.179871
0.194885
0.20166
0.197266
0.184631
0.173767
0.167725
0.16955599999999998
0.178589
0.191162
0.198914
0.201416
0.196472
0.182739
0.166443
0.160461
0.168823
0.179504
0.184082
0.180969
0.174561
0.173828
0.180969
0.191162
0.201782
0.208374
0.209961
0.208374
0.202026
0.193604
0.185242
0.17572000000000002
0.170593
0.17334000000000002
0.179626
0.187988
0.196716
0.198914
0.199768
0.195618
0.188477
0.186157
0.186157
0.183594
0.181091
0.184204
0.192871
0.198608
0.202148
0.197632
0.18689
0.168274
0.150879
0.142151
0.142578
0.15246600000000002
0.168518
0.183716
0.193237
0.195557
0.18927
0.178284
0.167786
0.159973
0.155334
0.15686
0.163574
0.167725
0.165405
0.155579
0.147217
0.148071
0.15631099999999998
0.164673
0.171021
0.172424
0.16888399999999998
0.165649
0.161621
0.15924100000000002
0.154602
0.143921
0.13610799999999998
0.131409
0.13226300000000002
0.136963
0.143555
0.149048
0.146606
0.134338
0.12701400000000002
0.127441
0.137695
0.146606
0.148071
0.149353
0.143921
0.14032
0.135864
0.126221
0.117798
0.115723
0.114807
0.120483
0.128662
0.135986
0.137756
0.13458299999999998
0.13183599999999998
0.13256800000000002
0.138428
0.146057
0.156067
0.166748
0.18335
0.201782
0.21582
0.213318
0.192749
0.167236
0.157532
0.169983
0.195435
0.216675
0.223877
0.207214
0.176086
0.143738
0.125244
0.12573199999999998
0.136475
0.143005
0.138428
0.128418
0.119629
0.115601
0.115784
0.120483
0.123108
0.122192
0.122131
0.122681
0.124023
0.121826
0.119751
0.121399
0.131348
0.134216
0.124817
0.111145
0.0969238
0.0934448
0.104614
0.117371
0.118347
0.108276
0.0995483
0.10986300000000003
0.144348
0.204163
0.294067
0.4375
0.645996
0.886475
1.07336
1.1153
0.976013
0.694336
0.369629
0.112
-0.0158691
-0.0256958
0.0339966
0.108948
0.165588
0.190796
0.191711
0.182129
0.170105
0.16095
0.15698199999999998
0.15625
0.158813
0.163208
0.170532
0.17266800000000002
0.166443
0.16381800000000002
0.159851
0.155579
0.149597
0.14361600000000002
0.141296
0.14361600000000002
0.15545699999999998
0.170471
0.17749
0.170654
0.15325899999999998
0.137329
0.13226300000000002
0.143311
0.164795
0.186279
0.198547
0.194214
0.182129
0.172546
0.169434
0.174744
0.180115
0.181152
0.18396
0.187683
0.19281
0.198608
0.205627
0.2146
0.225891
0.242859
0.263367
0.280334
0.281982
0.27313200000000004
0.259644
0.252686
0.263245
0.292114
0.325073
0.350098
0.362549
0.362305
0.357666
0.363586
0.37561
0.386475
0.395325
0.404724
0.410217
0.406799
0.397278
0.379333
0.357849
0.327393
0.290039
0.254456
0.222961
0.205444
0.199768
0.198364
0.195007
0.184204
0.16864
0.157227
0.154541
0.15618900000000002
0.153748
0.148743
0.145569
0.148621
0.154968
0.156067
0.154968
0.14666700000000002
0.138855
0.138
0.141052
0.142029
0.13684100000000002
0.134521
0.143372
0.159912
0.171326
0.170349
0.157166
0.137146
0.120728
0.113647
0.115479
0.13030999999999998
0.15448
0.17395
0.179688
0.17395
0.155151
0.138123
0.131897
0.13610799999999998
0.142151
0.14294400000000002
0.142395
0.152588
0.165405
0.17687999999999998
0.185974
0.17718499999999998
0.155273
0.129089
0.105957
0.0948486
0.101013
0.120544
0.141235
0.151855
0.152771
0.13989300000000002
0.118164
0.100586
0.0958252
0.0982666
0.10553
0.118225
0.131287
0.142273
0.148926
0.1474
0.135681
0.111206
0.08489989999999999
0.0689087
0.07110599999999999
0.0964355
0.118896
0.125183
0.11731
0.102661
0.0903931
0.0845337
0.0854492
0.08789060000000001
0.0883789
0.0862427
0.0856934
0.0944824
0.105103
0.112854
0.112854
0.106567
0.0930176
0.0770264
0.0645142
0.0615845
0.0717163
0.0908203
0.11291500000000003
0.12262
0.113159
0.0894775
0.06530760000000001
0.0490112
0.0514526
0.06817630000000001
0.0841064
0.0975342
0.108276
0.115417
0.114258
0.10614
0.0894165
0.0708618
0.0552979
0.0510254
0.0587769
0.07312010000000001
0.08966060000000001
0.100098
0.107178
0.106323
0.0944214
0.0820923
0.0758667
0.07403560000000001
0.07189939999999999
0.0737915
0.07617189999999999
0.07769780000000001
0.081604
0.08697510000000001
0.0942993
0.10083
0.0992432
0.08813480000000001
0.0721436
0.065979
0.0706177
0.0813599
0.0933838
0.101196
0.10321
0.100098
0.090332
0.08142089999999999
0.08032230000000001
0.08636469999999999
0.090332
0.0926514
0.0915527
0.0853271
0.0847168
0.0877686
0.0897217
0.08300779999999999
0.07110599999999999
0.061767599999999985
0.0619507
0.0704956
0.08081050000000001
0.0872192
0.0921631
0.0994873
0.104614
0.106567
0.102295
0.088562
0.06689450000000001
0.052063
0.0500488
0.057251
0.0702515
0.08959960000000003
0.108276
0.120605
0.123108
0.112122
0.0898438
0.06762699999999999
0.0480957
0.0445557
0.0640259
0.0928345
0.109619
0.108704
0.0910034
0.0727539
0.064209
0.0635986
0.069397
0.07440189999999999
0.08007810000000001
0.08959960000000003
0.0971069
0.104614
0.106567
0.098877
0.08172610000000001
0.0629883
0.0535278
0.0620117
0.07519529999999999
0.0883789
0.0963745
0.0916748
0.083313
0.08026119999999999
0.07891849999999999
0.07336430000000001
0.0664062
0.0627441
0.0682983
0.0828247
0.0964966
0.0993652
0.0968628
0.08789060000000001
0.07360839999999999
0.0601196
0.0588379
0.072876
0.09008789999999997
0.100769
0.102051
0.08862300000000001
0.0697632
0.06213380000000001
0.06671139999999999
0.07910160000000001
0.0964966
0.106323
0.105286
0.09021
0.06665039999999997
0.0471191
0.0426025
0.0592651
0.0820923
0.0935669
0.0933838
0.0874023
0.08300779999999999
0.0853271
0.0855713
0.081604
0.071167
0.0592651
0.0551147
0.06024169999999999
0.07403560000000001
0.0894775
0.10571300000000003
0.11084
0.0994263
0.07598880000000001
0.0523682
0.0418091
0.0523682
0.0742798
0.0943604
0.106567
0.109009
0.102783
0.0908813
0.0786133
0.07592769999999999
0.078125
0.0806885
0.0828247
0.0852051
0.0925903
0.103333
0.115051
0.123596
0.120789
0.106873
0.0863037
0.06658939999999999
0.0543823
0.0529785
0.06427000000000001
0.079834
0.0857544
0.0821533
0.06329349999999999
0.0368652
0.0206909
0.0159912
0.013855
0.0194092
0.036193800000000005
0.0540161
0.06817630000000001
0.07531739999999999
0.07128910000000001
0.05780030000000001
0.0412598
0.0301514
0.027832
0.031860400000000004
0.0385742
0.0471802
0.05688480000000001
0.0678711
0.0914307
0.134766
0.217407
0.364929
0.579224
0.8158569999999999
0.998413
1.03979
0.895508
0.607422
0.286377
0.046936
-0.055542
-0.040405300000000005
0.0281372
0.0970459
0.139282
0.146179
0.131653
0.110779
0.0854492
0.0650635
0.0597534
0.0653687
0.07733150000000001
0.0874023
0.090332
0.0861816
0.08233639999999999
0.0796509
0.07507319999999999
0.07269289999999999
0.0743408
0.08489989999999999
0.0942993
0.092041
0.0806885
0.0653687
0.0523682
0.05688480000000001
0.07971189999999999
0.102295
0.110962
0.105896
0.0909424
0.0773926
0.0715332
0.078125
0.0898438
0.0997314
0.106018
0.108948
0.104919
0.0994873
0.0938721
0.08435060000000001
0.08325199999999999
0.0979614
0.118225
0.135437
0.143677
0.145203
0.142578
0.139221
0.142334
0.15631099999999998
0.177307
0.199768
0.221802
0.235046
0.240234
0.242432
0.246704
0.253479
0.257263
0.263855
0.278381
0.296143
0.315918
0.331543
0.32959
0.31543000000000004
0.297424
0.27594
0.253601
0.23773200000000005
0.232849
0.22937
0.213684
0.184448
0.15173299999999998
0.12561
0.107605
0.0961304
0.092041
0.103027
0.121582
0.130066
0.125977
0.10321
0.07189939999999999
0.0493774
0.0444336
0.050293
0.0622559
0.07281489999999999
0.08325199999999999
0.0934448
0.0998535
0.0978394
0.0891113
0.07769780000000001
0.0664673
0.060546900000000015
0.0610962
0.0730591
0.0899658
0.10583499999999997
0.116577
0.114502
0.100708
0.07397460000000003
0.0474854
0.0332031
0.0368042
0.0570679
0.07910160000000001
0.0909424
0.0917358
0.08264160000000001
0.0699463
0.0635986
0.0643311
0.0682983
0.0734253
0.0805664
0.08398439999999999
0.08105470000000001
0.07073969999999999
0.0576172
0.0497437
0.0484009
0.0455322
0.0400391
0.033508300000000005
0.0270386
0.022949200000000003
0.0224609
0.0292358
0.0429688
0.0509033
0.0487061
0.0356445
0.0209961
0.013305700000000002
0.016357399999999998
0.0217285
0.0273438
0.0278931
0.0236816
0.0183105
0.0174561
0.021667500000000003
0.026916500000000003
0.031555200000000005
0.033508300000000005
0.0304565
0.0206299
0.018066400000000003
0.022583
0.031860400000000004
0.0377197
0.03302
0.0247192
0.0194092
0.019043
0.0209351
0.0194092
0.015930200000000002
0.015319799999999996
0.015930200000000002
0.0196533
0.0236816
0.0219116
0.0144653
0.0111694
0.00933838
0.00933838
0.00897217
0.0088501
0.00958252
0.0125732
0.014526400000000004
0.016845699999999998
0.0238037
0.0238037
0.0147705
-0.000549316
-0.0128174
-0.0136108
-0.00158691
0.0108643
0.013916
0.00994873
0.00476074
0.00164795
0.00250244
0.0119629
0.0199585
0.018981900000000003
0.0119629
0.00170898
-0.00494385
-0.00848389
-0.00836182
-0.00579834
0.00183105
0.0108643
0.0186768
0.022033700000000003
0.0179443
0.00598145
-0.00408936
-0.00524902
-0.000427246
0.010376
0.015930200000000002
0.017761199999999998
0.0133667
0.00439453
-0.0055542000000000005
-0.00946045
-0.00109863
0.0140381
0.0206909
0.020752
0.0128784
0.00366211
-0.00292969
-0.00177002
0.00714111
0.0137939
0.017761199999999998
0.0215454
0.0286865
0.0342407
0.0314941
0.016723599999999998
0.00177002
-0.00616455
-0.00189209
0.00372314
0.00836182
0.0105591
0.0100098
0.00756836
0.00769043
0.0123901
0.0186768
0.0241699
0.0250244
0.016357399999999998
0.00524902
0.0010376
0.00744629
0.0244751
0.0387573
0.0408325
0.0293579
0.0152588
0.00836182
0.00634766
0.00616455
0.00701904
0.00872803
0.00799561
0.00628662
0.00244141
0.00146484
0.00494385
0.0109253
0.0219727
0.03302
0.040405300000000005
0.0357056
0.0252075
0.012756299999999998
0.00488281
0.00201416
0.00592041
0.0135498
0.0203857
0.019104
0.0100098
0.0012207
-0.00134277
-0.000366211
0.00183105
0.00567627
0.0067749
0.011718799999999998
0.0217896
0.0314331
0.0352783
0.030212400000000007
0.0157471
0.00177002
-0.00146484
0.00408936
0.00933838
0.0112305
0.00994873
0.00769043
0.00396729
0.00469971
0.00854492
0.0109863
0.0179443
0.024292
0.0323486
0.0426025
0.049133300000000005
0.0534058
0.0510864
0.0412598
0.027771
0.0193481
0.0204468
0.0316772
0.0427246
0.046936
0.0449219
0.0408936
0.038269
0.034423800000000004
0.0306396
0.0239258
0.0131226
-0.00177002
-0.0161743
-0.021667500000000003
-0.0133667
-0.00408936
0.00341797
0.00134277
-0.00933838
-0.0236816
-0.0360107
-0.0411987
-0.0366821
-0.0232544
-0.00689697
0.00323486
0.00274658
-0.00994873
-0.030212400000000007
-0.0444336
-0.041687
-0.0317383
-0.0244751
-0.0233765
-0.020752
-0.0187378
-0.00805664
0.0220947
0.08660889999999999
0.206421
0.394714
0.628479
0.842834
0.951965
0.8984989999999999
0.687317
0.396729
0.126221
-0.0513306
-0.122742
-0.10437
-0.0410767
0.022949200000000003
0.0600586
0.0673218
0.0591431
0.0460815
0.0392456
0.0368042
0.0324707
0.026062
0.0219116
0.020813
0.0230103
0.0301514
0.029541
0.0266724
0.0271606
0.0306396
0.0335693
0.032714799999999995
0.036438
0.0426636
0.0443115
0.0412598
0.0274048
0.0110474
0.00317383
0.0055542000000000005
0.016845699999999998
0.0299683
0.0377808
0.0408936
0.045043900000000005
0.052795400000000006
0.06329349999999999
0.06738279999999999
0.059021
0.0449219
0.0348511
0.0356445
0.048645
0.0665283
0.0856323
0.0926514
0.0911865
0.08380130000000001
0.07446289999999997
0.0678711
0.067749
0.07879639999999999
0.0993652
0.122009
0.144958
0.16351300000000002
0.175232
0.180115
0.184143
0.190186
0.209961
0.241089
0.265442
0.277161
0.276489
0.265991
0.25256300000000004
0.240051
0.234436
0.236755
0.241028
0.239868
0.226257
0.201477
0.162476
0.12677
0.103516
0.0956421
0.093689
0.0865479
0.0697632
0.048645
0.0308838
0.017211900000000002
0.0130005
0.015563999999999996
0.0153809
0.0103149
0.00305176
0.000854492
0.00445557
0.0147705
0.0228271
0.0217896
0.0159912
0.012207
0.0192261
0.0244141
0.022522
0.00897217
-0.0126953
-0.0239868
-0.015808100000000002
0.000366211
0.0123901
0.017028799999999997
0.0206909
0.022522
0.0203857
0.017334
0.0174561
0.023315400000000003
0.0250854
0.0227661
0.017028799999999997
0.00982666
0.00811768
0.00933838
0.011779799999999998
0.0126343
0.0151367
0.015441899999999996
0.015808100000000002
0.0186768
0.0248413
0.0308228
0.0319214
0.0250854
0.00909424
-0.00689697
-0.0100098
0.000427246
0.010376
0.0123291
0.00622559
-0.0022583000000000004
-0.00561523
-0.00860596
-0.0106201
-0.0135498
-0.0183716
-0.0217896
-0.0181274
-0.00927734
-0.00244141
0.00323486
-6.10352e-05
-0.00537109
-0.012207
-0.0189209
-0.0266724
-0.0371094
-0.0401611
-0.030212400000000007
-0.0201416
-0.0109253
-0.00952148
-0.0197144
-0.0343018
-0.0415039
-0.038208
-0.0300903
-0.024353
-0.0205078
-0.0178223
-0.015686000000000002
-0.0185547
-0.0244751
-0.0320435
-0.039917
-0.0455322
-0.0472412
-0.0393066
-0.0195312
-0.00512695
-0.00744629
-0.0237427
-0.0476074
-0.0614014
-0.059021
-0.0406494
-0.0178223
0.000366211
0.00439453
-0.005737300000000001
-0.0217896
-0.0419312
-0.0610962
-0.07391360000000001
-0.0735474
-0.0612793
-0.041320800000000005
-0.0180054
0.000793457
0.00482178
-0.00390625
-0.0218506
-0.0372925
-0.0418091
-0.0349121
-0.0250854
-0.019104
-0.0148315
-0.0130005
-0.013305700000000002
-0.015625
-0.0218506
-0.0322876
-0.0452881
-0.0531006
-0.0495605
-0.039856
-0.0261841
-0.0129395
-0.00640869
-0.00531006
-0.00720215
-0.0125732
-0.0141602
-0.00817871
-0.00427246
-0.00469971
-0.00921631
-0.016113299999999997
-0.0192261
-0.013916
-0.00195312
0.00933838
0.00842285
-0.00506592
-0.0218506
-0.0289917
-0.0239868
-0.0175171
-0.0134277
-0.00665283
0.0112305
0.0338745
0.0510864
0.0508423
0.0324097
0.006591800000000001
-0.0137939
-0.0214233
-0.020813
-0.0178833
-0.0108643
0.0012207
0.013916
0.0212402
0.0155029
0.000244141
-0.0118408
-0.0150146
-0.009033200000000002
0.00341797
0.017761199999999998
0.0352173
0.0534668
0.07574460000000001
0.0911865
0.08813480000000001
0.0597534
0.0217285
-0.00360107
-0.0098877
0.00390625
0.0219727
0.0357056
0.0408325
0.0397339
0.0365601
0.0265503
0.016052200000000003
0.00213623
-0.0126343
-0.0222778
-0.0230103
-0.00750732
0.018981900000000003
0.0488281
0.0628052
0.0476685
0.00708008
-0.0356445
-0.0571899
-0.0474854
-0.022033700000000003
0.000976562
0.0139771
0.015197799999999997
0.00500488
-0.00415039
-0.00421143
0.00128174
0.00701904
0.00506592
-0.00811768
-0.0239258
-0.0175171
0.0218506
0.08752439999999999
0.172974
0.275574
0.402527
0.5715939999999999
0.753235
0.8734129999999999
0.8535159999999999
0.6774899999999999
0.40387
0.133423
-0.0469971
-0.110229
-0.07769780000000001
-6.10352e-05
0.0703735
0.109009
0.118591
0.115417
0.109009
0.103821
0.0976562
0.08935549999999999
0.0782471
0.0682983
0.06811519999999999
0.07312010000000001
0.07531739999999999
0.076416
0.0795898
0.0825806
0.0903931
0.0929565
0.0856323
0.0758057
0.0665283
0.060791
0.0628052
0.07128910000000001
0.0824585
0.0927734
0.0996094
0.102295
0.101562
0.0995483
0.101257
0.102966
0.102173
0.100952
0.0932617
0.08831789999999999
0.0908813
0.0963135
0.103638
0.114868
0.130371
0.14032
0.138489
0.127563
0.118042
0.119019
0.131165
0.154053
0.181824
0.204346
0.2146
0.21447800000000006
0.21228
0.214844
0.22332800000000005
0.238831
0.259399
0.281677
0.300171
0.310181
0.310608
0.30542
0.302124
0.302002
0.309448
0.326416
0.337585
0.33075
0.306213
0.267395
0.228699
0.201904
0.18512
0.173828
0.163452
0.148804
0.129089
0.114746
0.106262
0.102356
0.0967407
0.08886720000000001
0.078186
0.06726069999999999
0.0592041
0.059021
0.06622310000000001
0.0765991
0.0857544
0.0923462
0.0974731
0.10083
0.0982056
0.08959960000000003
0.08184810000000001
0.0735474
0.0695801
0.071167
0.07446289999999997
0.0765991
0.0747681
0.07269289999999999
0.0756836
0.0845947
0.0927124
0.0992432
0.0982056
0.0935059
0.0933838
0.0945435
0.0942383
0.0980835
0.100586
0.100098
0.0986328
0.0988159
0.0911255
0.0783691
0.0730591
0.0801392
0.0946045
0.103455
0.102173
0.08898930000000001
0.0735474
0.06616210000000003
0.0684814
0.0827637
0.0969849
0.106018
0.10736099999999997
0.0969238
0.0872803
0.0806885
0.07574460000000001
0.07312010000000001
0.07360839999999999
0.0772705
0.0784302
0.07623289999999999
0.0762939
0.0786133
0.0799561
0.07910160000000001
0.07440189999999999
0.0688477
0.0697021
0.0766602
0.0872192
0.0913086
0.07543949999999999
0.0559082
0.044006300000000005
0.0425415
0.052063
0.0654907
0.078186
0.0866699
0.0958252
0.0903931
0.0706177
0.0515137
0.0344849
0.0285645
0.034668
0.0449829
0.0546875
0.0612183
0.06793210000000001
0.0755615
0.07733150000000001
0.06579589999999999
0.0459595
0.0300903
0.0236206
0.0298462
0.0460205
0.0658569
0.090271
0.107056
0.104431
0.08081050000000001
0.0436401
0.0115356
-0.00231934
0.00543213
0.0266113
0.0455933
0.0593262
0.07623289999999999
0.0942993
0.09790039999999997
0.0915527
0.072876
0.0532227
0.0401611
0.0343018
0.0328369
0.0374756
0.0455322
0.052612300000000015
0.06872560000000001
0.095459
0.120483
0.12548800000000002
0.101196
0.0563354
0.0186768
0.0139771
0.0377808
0.07397460000000003
0.0997925
0.0968018
0.072937
0.0449219
0.031066900000000005
0.0374756
0.0542603
0.0715942
0.0861816
0.0935669
0.0905762
0.08752439999999999
0.0915527
0.0991821
0.105591
0.105103
0.0993652
0.0921631
0.08966060000000001
0.0910034
0.0881958
0.0889282
0.088562
0.08673099999999999
0.0894775
0.0958862
0.102844
0.10675
0.10791
0.110596
0.116211
0.119324
0.116577
0.107605
0.0982056
0.088562
0.0766602
0.06518550000000001
0.053833000000000006
0.0465698
0.0513306
0.06292719999999999
0.0645752
0.0545654
0.0379028
0.0264282
0.0305176
0.0452881
0.0547485
0.0631714
0.0730591
0.081604
0.08026119999999999
0.0701904
0.056457500000000015
0.0472412
0.052917499999999985
0.0686646
0.08398439999999999
0.0862427
0.07250980000000001
0.0552979
0.0463257
0.0488281
0.06964110000000001
0.122375
0.220215
0.383301
0.603271
0.832031
0.988464
1.00146
0.8506469999999999
0.577209
0.27887
0.05505369999999999
-0.050293
-0.0461426
0.0177002
0.097168
0.149231
0.158936
0.141479
0.121765
0.111755
0.11261
0.119629
0.121033
0.120117
0.128418
0.143311
0.151794
0.149231
0.12884500000000002
0.104126
0.09008789999999997
0.0933838
0.107849
0.120605
0.127625
0.126343
0.121826
0.112488
0.10968
0.114136
0.117126
0.115723
0.110168
0.107727
0.122009
0.15478499999999998
0.186829
0.195129
0.17236300000000002
0.127197
0.0847778
0.0762939
0.100342
0.137939
0.167969
0.184265
0.193176
0.186829
0.173157
0.159851
0.15155
0.155334
0.16833499999999998
0.184631
0.202759
0.22705100000000006
0.253479
0.278503
0.294739
0.296082
0.280884
0.266113
0.259949
0.266663
0.284729
0.308228
0.328247
0.344666
0.355835
0.3526
0.338501
0.320801
0.29425
0.263245
0.242615
0.238098
0.243164
0.23999
0.225464
0.19574
0.15448
0.118042
0.0974731
0.0892944
0.0932007
0.10498
0.117676
0.123718
0.116455
0.102539
0.088562
0.07879639999999999
0.0803833
0.0880127
0.0916138
0.0955811
0.0966187
0.0943604
0.08862300000000001
0.08227539999999997
0.08264160000000001
0.0910645
0.0979614
0.104919
0.110535
0.106506
0.09741210000000003
0.0861816
0.0788574
0.0792847
0.0856323
0.0923462
0.0974731
0.10888699999999997
0.127869
0.149658
0.15771500000000002
0.142517
0.10888699999999997
0.0733032
0.0560913
0.0615845
0.07879639999999999
0.100403
0.121033
0.134888
0.140015
0.125427
0.0981445
0.076416
0.0656128
0.0662842
0.07543949999999999
0.0968018
0.114868
0.123657
0.119202
0.104309
0.08154299999999999
0.0600586
0.0478516
0.0477905
0.0610352
0.07855219999999999
0.0880127
0.0888062
0.08264160000000001
0.07592769999999999
0.0767822
0.0778198
0.0772705
0.0690308
0.057373
0.05432130000000001
0.0637207
0.0854492
0.098938
0.0926514
0.0778198
0.0570679
0.0427856
0.0401001
0.0467529
0.0595703
0.07482910000000001
0.0860596
0.08807369999999999
0.07592769999999999
0.05432130000000001
0.0346069
0.0250244
0.0309448
0.0482788
0.0688477
0.0870361
0.0984497
0.0971069
0.07623289999999999
0.049133300000000005
0.0246582
0.0143433
0.0181885
0.0309448
0.0474243
0.0586548
0.0601807
0.0581665
0.0556641
0.0518188
0.0460815
0.0404663
0.038208
0.0425415
0.0530396
0.06951900000000001
0.08233639999999999
0.088501
0.0831909
0.0688477
0.0575562
0.0478516
0.0404663
0.028869599999999995
0.0176392
0.0152588
0.026794400000000003
0.0430908
0.0548706
0.0598755
0.0593872
0.0574951
0.0563965
0.0558472
0.060791
0.06750489999999999
0.0719604
0.0801392
0.0814819
0.0742188
0.065979
0.059509300000000015
0.0599365
0.05694580000000001
0.046875
0.0328979
0.0230103
0.0267334
0.0383911
0.0508423
0.0614014
0.0656738
0.0643311
0.06835939999999999
0.0719604
0.0741577
0.06622310000000001
0.0510254
0.0405884
0.039978
0.0509644
0.0640259
0.0748901
0.07312010000000001
0.060546900000000015
0.0436401
0.0292969
0.0227661
0.0239258
0.0290527
0.0374146
0.0496216
0.0635376
0.07110599999999999
0.0715332
0.0671997
0.057373
0.0460205
0.0391235
0.041870099999999986
0.0544434
0.067749
0.07623289999999999
0.0772095
0.06518550000000001
0.044799800000000015
0.0279541
0.0200806
0.0252686
0.0436401
0.0591431
0.067749
0.07189939999999999
0.07189939999999999
0.06817630000000001
0.0654907
0.0621948
0.057312
0.055419900000000015
0.0581055
0.0620117
0.061767599999999985
0.057312
0.0516357
0.051696800000000015
0.054992700000000005
0.055542
0.0556641
0.0652466
0.0799561
0.0847168
0.07745360000000001
0.0601807
0.0412598
0.0390015
0.049987800000000006
0.0618286
0.0687866
0.06738279999999999
0.0637207
0.0620117
0.06311040000000001
0.064209
0.0574951
0.0479736
0.0454102
0.052734400000000015
0.0615845
0.0637207
0.0618896
0.0558472
0.0519409
0.055419900000000015
0.06414790000000001
0.0742188
0.0793457
0.0769653
0.0719604
0.064209
0.0551147
0.052002
0.0524902
0.0586548
0.0656128
0.0671997
0.06292719999999999
0.0593872
0.0581055
0.0579834
0.0603638
0.06463619999999999
0.0710449
0.07244869999999999
0.0735474
0.07971189999999999
0.0865479
0.0921631
0.0935059
0.0953979
0.0986938
0.106018
0.115356
0.114502
0.107605
0.0968018
0.0872192
0.0858765
0.0892944
0.0921021
0.0891113
0.0814819
0.0743408
0.06555180000000001
0.053772
0.0421143
0.039917
0.0429077
0.0430298
0.0413818
0.0394897
0.0368042
0.037231400000000005
0.0402222
0.0423584
0.0424194
0.0454102
0.051696800000000015
0.054992700000000005
0.052795400000000006
0.041870099999999986
0.0262451
0.0162964
0.016967799999999998
0.0269775
0.0368652
0.0487671
0.0679932
0.0890503
0.124939
0.196289
0.330994
0.538513
0.783936
0.983459
1.04803
0.929993
0.658936
0.335571
0.0723267
-0.0665283
-0.0767212
-0.0115967
0.07391360000000001
0.14325
0.17108199999999998
0.166748
0.143738
0.11554
0.0928345
0.0788574
0.07745360000000001
0.08953860000000001
0.108032
0.115662
0.112
0.102661
0.0913696
0.0811157
0.0734253
0.0767212
0.0862427
0.0996704
0.116333
0.125977
0.12262
0.110718
0.100647
0.09552
0.09375
0.0963135
0.0987549
0.10022
0.10968
0.121704
0.119751
0.107483
0.0947876
0.08691410000000001
0.0861816
0.0936279
0.115723
0.137512
0.150574
0.15551800000000002
0.146606
0.132812
0.12384
0.123962
0.135803
0.14819300000000002
0.159668
0.173584
0.196289
0.220581
0.233276
0.235535
0.223755
0.213684
0.219421
0.23761
0.261047
0.287659
0.308594
0.323364
0.325928
0.319763
0.312988
0.304077
0.30004899999999995
0.303467
0.303528
0.299194
0.293945
0.286194
0.268066
0.24078400000000005
0.20770300000000005
0.1745
0.149841
0.133484
0.124146
0.117188
0.116333
0.119324
0.11615
0.112
0.11084
0.10907
0.102478
0.0917969
0.0857544
0.0928955
0.107117
0.122253
0.124084
0.109802
0.0845947
0.0690918
0.07128910000000001
0.08374019999999999
0.0994263
0.111511
0.120728
0.126038
0.129578
0.122253
0.108826
0.0941772
0.0820312
0.0778198
0.0836792
0.102234
0.126526
0.142029
0.148926
0.140503
0.121155
0.0976562
0.08154299999999999
0.08264160000000001
0.0910645
0.103333
0.113464
0.117432
0.116821
0.112488
0.104614
0.0960083
0.0931396
0.0930176
0.0986938
0.113586
0.125183
0.125977
0.108826
0.08178710000000003
0.0588989
0.0523071
0.0585938
0.0697632
0.0808716
0.0862427
0.0795898
0.065979
0.0514526
0.0420532
0.0443115
0.05432130000000001
0.0645752
0.0695801
0.06530760000000001
0.0581665
0.0578613
0.0723267
0.0891724
0.0932007
0.0856934
0.06964110000000001
0.0530396
0.0447388
0.0488892
0.0593872
0.06854249999999999
0.0701294
0.0613403
0.0474243
0.0368652
0.031189
0.031311
0.0385742
0.045166000000000005
0.050293
0.0600586
0.07373049999999999
0.08264160000000001
0.0767822
0.0623169
0.0438232
0.0355835
0.0449219
0.0574951
0.057251
0.0471802
0.0302734
0.016601599999999998
0.0181274
0.032775900000000004
0.0485229
0.0557861
0.05688480000000001
0.0603638
0.0626831
0.0671387
0.0740967
0.0740967
0.06817630000000001
0.0530396
0.0339966
0.026123
0.0386353
0.0627441
0.0812378
0.08050539999999999
0.06469730000000001
0.0425415
0.0269775
0.0236816
0.0338745
0.050293
0.062439
0.06762699999999999
0.0686646
0.0644531
0.0601196
0.0600586
0.06292719999999999
0.0579834
0.0493164
0.0469971
0.0513916
0.0611572
0.06591799999999999
0.0599365
0.049987800000000006
0.0431519
0.0396729
0.0379028
0.041687
0.0518188
0.0691528
0.088501
0.0977173
0.086853
0.0634155
0.0376587
0.024231
0.034118699999999995
0.0599976
0.0823975
0.0933838
0.0914307
0.0758667
0.0594482
0.0474243
0.0473633
0.0561523
0.060729999999999985
0.0600586
0.056640599999999985
0.0534668
0.0561523
0.0618896
0.0669556
0.0703735
0.07244869999999999
0.0689697
0.0656738
0.0626221
0.0636597
0.0652466
0.0697021
0.0738525
0.06964110000000001
0.059021
0.052002
0.0536499
0.0634766
0.0788574
0.0919189
0.0953979
0.08886720000000001
0.0796509
0.0682983
0.0633545
0.0656738
0.069458
0.0709229
0.0733032
0.07312010000000001
0.0698242
0.06427000000000001
0.06469730000000001
0.0767822
0.0952759
0.10321
0.0966187
0.0852051
0.07745360000000001
0.07403560000000001
0.0776367
0.081665
0.078064
0.06988530000000001
0.0651245
0.06530760000000001
0.0703125
0.0789795
0.0856323
0.0905151
0.0930176
0.08813480000000001
0.0847168
0.0894165
0.0973511
0.105469
0.107056
0.0997925
0.08966060000000001
0.0812378
0.0778198
0.0758057
0.0812988
0.0871582
0.08886720000000001
0.085083
0.07971189999999999
0.07910160000000001
0.0802002
0.0861206
0.0951538
0.0985718
0.100647
0.0964966
0.0938721
0.0964355
0.0977783
0.101318
0.105103
0.109985
0.115784
0.122437
0.12701400000000002
0.131348
0.136536
0.140442
0.14801
0.160828
0.167175
0.16009500000000002
0.1427
0.122375
0.110107
0.110657
0.12262
0.133484
0.13378900000000002
0.119385
0.100342
0.08398439999999999
0.0743408
0.0723877
0.0735474
0.074646
0.074585
0.0767822
0.0775146
0.0762939
0.0716553
0.06579589999999999
0.0545654
0.0470581
0.0525513
0.0623779
0.072937
0.08435060000000001
0.0901489
0.0911255
0.0838623
0.06951900000000001
0.0543823
0.045105
0.0473633
0.0665283
0.104126
0.165527
0.258301
0.405701
0.6149899999999999
0.852966
1.04303
1.09143
0.962158
0.6984859999999999
0.389954
0.138
0.000671387
-0.0165405
0.044067400000000014
0.12133800000000003
0.178589
0.193481
0.17193599999999998
0.14013699999999998
0.121948
0.123535
0.137268
0.148071
0.15155
0.149536
0.140747
0.129761
0.120728
0.115417
0.119263
0.13104200000000002
0.141785
0.15173299999999998
0.15478499999999998
0.151978
0.14562999999999998
0.138916
0.135071
0.139099
0.1427
0.145386
0.15094000000000002
0.150513
0.143494
0.136902
0.134644
0.144714
0.162109
0.175537
0.180054
0.175964
0.165955
0.158325
0.162109
0.178162
0.202087
0.221497
0.22876
0.223877
0.208374
0.195557
0.196045
0.212769
0.237671
0.252075
0.261047
0.26452600000000004
0.266663
0.27478
0.285706
0.30011
0.31604
0.332031
0.35083000000000003
0.36969
0.390137
0.408569
0.417847
0.419189
0.412415
0.399292
0.387634
0.377441
0.36853
0.355225
0.33215300000000003
0.305847
0.284241
0.268433
0.258301
0.252014
0.247314
0.241516
0.230408
0.215942
0.196472
0.176819
0.16217
0.155579
0.159973
0.169128
0.171265
0.169495
0.164185
0.159424
0.159607
0.157227
0.151855
0.151428
0.151917
0.153748
0.156921
0.162842
0.165771
0.161011
0.156799
0.155212
0.156799
0.160461
0.170166
0.188293
0.202637
0.19397
0.171021
0.141907
0.119812
0.120117
0.136047
0.14856
0.15686
0.160156
0.15856900000000002
0.159607
0.166992
0.176453
0.180786
0.171997
0.156372
0.140869
0.133118
0.136658
0.14819300000000002
0.1521
0.14135699999999998
0.127625
0.117065
0.11291500000000003
0.114624
0.114136
0.113892
0.119202
0.125183
0.12878399999999998
0.126099
0.114868
0.103821
0.098877
0.101685
0.110901
0.11731
0.118286
0.120422
0.12439
0.128418
0.12262
0.110535
0.100769
0.0951538
0.0969238
0.108948
0.128296
0.142822
0.149109
0.141479
0.118286
0.0919189
0.0734253
0.0700073
0.0802002
0.0994263
0.114563
0.11499
0.113403
0.120972
0.134521
0.146851
0.147217
0.133484
0.113708
0.0886841
0.0721436
0.0680542
0.0758057
0.0916748
0.109375
0.118835
0.116882
0.106018
0.0944824
0.0911865
0.0967407
0.103699
0.106628
0.102661
0.0968628
0.109314
0.13324
0.153503
0.152344
0.123779
0.0784912
0.0482788
0.0510254
0.07543949999999999
0.0980225
0.106812
0.106079
0.1026
0.100281
0.102234
0.104919
0.102295
0.0973511
0.0942383
0.0949707
0.103271
0.10968
0.10791
0.100647
0.0901489
0.07653810000000001
0.06762699999999999
0.0663452
0.0767822
0.0935059
0.106201
0.111206
0.103821
0.0866699
0.0680542
0.056457500000000015
0.0548096
0.0634766
0.072937
0.0792236
0.081604
0.08081050000000001
0.0784912
0.07519529999999999
0.0701294
0.0697632
0.07073969999999999
0.0750122
0.08831789999999999
0.104614
0.107605
0.0994873
0.0777588
0.0528564
0.0388794
0.035461400000000004
0.0442505
0.0637817
0.0859985
0.103088
0.110962
0.101746
0.08435060000000001
0.0631714
0.0471191
0.0430908
0.0473022
0.0613403
0.08404539999999999
0.106567
0.121521
0.109558
0.0796509
0.0469971
0.0271606
0.0280762
0.039917
0.0543823
0.0688477
0.0809937
0.0901489
0.0941772
0.0941772
0.08752439999999999
0.07373049999999999
0.0656128
0.0678711
0.0761108
0.08831789999999999
0.0941162
0.0930176
0.086853
0.07714839999999999
0.0695801
0.0670776
0.07269289999999999
0.0799561
0.0848389
0.0905151
0.0950317
0.101257
0.110291
0.122681
0.13983199999999998
0.148132
0.13989300000000002
0.125671
0.112366
0.111206
0.11908
0.12884500000000002
0.13677999999999998
0.136597
0.132935
0.125
0.117249
0.107544
0.0963135
0.08874510000000001
0.08404539999999999
0.0819092
0.08062739999999999
0.0786743
0.08435060000000001
0.098877
0.115601
0.12579300000000002
0.121704
0.107056
0.086792
0.06817630000000001
0.057678199999999985
0.0583496
0.0699463
0.08264160000000001
0.0910034
0.0939941
0.0866699
0.0723877
0.0585938
0.0556641
0.06488039999999999
0.08398439999999999
0.12262
0.196655
0.311829
0.482361
0.692383
0.891968
1.01093
0.985596
0.803589
0.516907
0.226868
0.0211792
-0.060424800000000015
-0.0388184
0.0397949
0.117615
0.162354
0.169312
0.151428
0.128601
0.112488
0.110779
0.123474
0.132996
0.129028
0.110718
0.08697510000000001
0.0714722
0.0714111
0.0841064
0.107971
0.133667
0.14624
0.139771
0.115723
0.0871582
0.0675659
0.0609131
0.06842039999999999
0.0831909
0.0936279
0.103394
0.115906
0.128235
0.132141
0.121216
0.0957031
0.0686646
0.0588989
0.0667725
0.08325199999999999
0.0983887
0.11145
0.130493
0.154175
0.170166
0.169434
0.148926
0.113647
0.0938721
0.100281
0.120728
0.145081
0.16449
0.178345
0.190491
0.195801
0.19281
0.190613
0.190979
0.197266
0.213318
0.234375
0.25354
0.268616
0.283569
0.306396
0.33563200000000004
0.358215
0.364441
0.343262
0.305481
0.27270500000000003
0.255798
0.26062
0.272095
0.26886
0.247314
0.207092
0.161316
0.125916
0.0994263
0.0875854
0.0892944
0.0952759
0.0994873
0.0996094
0.0978394
0.0982666
0.0950317
0.0912476
0.0856323
0.0783081
0.0687866
0.0588989
0.055419900000000015
0.06427000000000001
0.0836792
0.0967407
0.0998535
0.0917969
0.08026119999999999
0.0709229
0.0654907
0.0678711
0.0690918
0.0670776
0.06701660000000001
0.0688477
0.0717773
0.0734863
0.07312010000000001
0.07531739999999999
0.07733150000000001
0.0813599
0.08526610000000001
0.0856934
0.081665
0.07507319999999999
0.0675659
0.0668335
0.07391360000000001
0.0830688
0.086853
0.08959960000000003
0.0905762
0.0910034
0.0844116
0.07281489999999999
0.0582275
0.045043900000000005
0.0352783
0.0385132
0.0530396
0.07110599999999999
0.08081050000000001
0.0827637
0.07281489999999999
0.05792240000000001
0.0444336
0.0353394
0.0338135
0.039978
0.048584
0.055542
0.06469730000000001
0.0715942
0.0682373
0.0557251
0.036193800000000005
0.0212402
0.023193400000000003
0.0395508
0.0596313
0.0805664
0.0853882
0.07128910000000001
0.057373
0.043396
0.038269
0.037353500000000005
0.0379028
0.0378418
0.0453491
0.057373
0.0668335
0.0704956
0.0628662
0.0455933
0.028442400000000007
0.0211182
0.0237427
0.0352783
0.0476685
0.0548706
0.0582886
0.0596924
0.056640599999999985
0.0518799
0.0458374
0.0393066
0.0366211
0.0386353
0.0431519
0.048584
0.0508423
0.0461426
0.0424805
0.0394287
0.0366211
0.0339966
0.0360107
0.0432739
0.050293
0.0512085
0.0483398
0.0432129
0.038085900000000006
0.0337524
0.0336914
0.040405300000000005
0.0476685
0.0485229
0.0484619
0.0477295
0.0400391
0.0317383
0.0302734
0.0392456
0.0518188
0.0654907
0.06842039999999999
0.0593872
0.0457153
0.0328369
0.0248413
0.0234375
0.028869599999999995
0.036132800000000014
0.0424805
0.0493164
0.051696800000000015
0.0493164
0.0452881
0.0406494
0.044799800000000015
0.0574951
0.07128910000000001
0.0801392
0.0861816
0.0829468
0.07403560000000001
0.0618896
0.0535278
0.0481567
0.0454102
0.0493164
0.0540771
0.0601807
0.0594482
0.0547485
0.0540771
0.0594482
0.06738279999999999
0.07745360000000001
0.0821533
0.0814819
0.0824585
0.081604
0.0806885
0.0820923
0.08227539999999997
0.0783081
0.0794067
0.0908813
0.107605
0.116821
0.122925
0.12262
0.110718
0.097229
0.08789060000000001
0.0825806
0.08813480000000001
0.0983887
0.0982056
0.0861816
0.0680542
0.0518799
0.0424805
0.041442900000000005
0.0437012
0.0442505
0.0430908
0.0459595
0.0542603
0.0638428
0.06542970000000001
0.0597534
0.0518188
0.0472412
0.0460205
0.0460815
0.0454102
0.044006300000000005
0.0390625
0.0390625
0.0453491
0.0484619
0.0463867
0.039917
0.0291748
0.0236206
0.0238037
0.0350952
0.0687866
0.139343
0.257629
0.432251
0.6542359999999999
0.8667600000000001
0.982239
0.939819
0.733704
0.434082
0.15124500000000002
-0.03125
-0.0910645
-0.0542603
0.0282593
0.102905
0.1427
0.148804
0.132324
0.105652
0.0871582
0.081665
0.0853271
0.0947266
0.10583499999999997
0.113586
0.119995
0.122192
0.116211
0.108704
0.104004
0.101257
0.0951538
0.0932617
0.0955811
0.104126
0.121582
0.14068599999999998
0.154846
0.153564
0.133484
0.104614
0.0797729
0.06933589999999999
0.0778809
0.101807
0.126953
0.141724
0.142395
0.132446
0.119751
0.117737
0.124084
0.13104200000000002
0.136902
0.139343
0.139709
0.145996
0.153748
0.1651
0.174561
0.172974
0.168762
0.17266800000000002
0.18396
0.193848
0.208618
0.225891
0.237976
0.242371
0.238525
0.233032
0.238831
0.259277
0.283447
0.298889
0.305847
0.306824
0.30761700000000003
0.313416
0.328125
0.33520500000000003
0.328064
0.306824
0.279541
0.247375
0.21582
0.193176
0.17541500000000002
0.157959
0.141541
0.127747
0.113586
0.102722
0.09375
0.0856323
0.0796509
0.0784302
0.0753784
0.0708008
0.0635376
0.0585938
0.0577393
0.0584717
0.0665283
0.08288569999999999
0.0967407
0.092041
0.0725708
0.0454102
0.0265503
0.0266724
0.0482788
0.07617189999999999
0.08935549999999999
0.0858765
0.0719604
0.05694580000000001
0.0499268
0.052917499999999985
0.0600586
0.06579589999999999
0.06781010000000001
0.0657349
0.0588989
0.0534668
0.0543823
0.0636597
0.0755615
0.08312989999999999
0.0882568
0.08435060000000001
0.0680542
0.0514526
0.043396
0.0393677
0.0455933
0.05896000000000001
0.07708739999999999
0.0910034
0.08789060000000001
0.06964110000000001
0.0508423
0.041687
0.0457764
0.0508423
0.0475464
0.0377808
0.0306396
0.032226599999999994
0.0415039
0.0494995
0.0524902
0.0508423
0.0456543
0.0371094
0.0271606
0.0186768
0.0247192
0.0465698
0.0703125
0.0775757
0.06518550000000001
0.0424194
0.022033700000000003
0.0126953
0.0151367
0.0224609
0.0328979
0.0405273
0.042175300000000006
0.0430298
0.0428467
0.0401001
0.0365601
0.0374756
0.0473022
0.0562744
0.0565796
0.0512695
0.0389404
0.0252686
0.0141602
0.00714111
0.00512695
0.0105591
0.019104
0.0281372
0.0338745
0.0358276
0.0332031
0.0291748
0.0266724
0.026916500000000003
0.0289917
0.0316772
0.034362800000000006
0.039978
0.046936
0.0514526
0.0523071
0.0415039
0.0220947
0.00598145
0.00311279
0.0195312
0.045166000000000005
0.057373
0.053772
0.0446777
0.0366821
0.0338745
0.036193800000000005
0.0424805
0.049804699999999986
0.0488281
0.0419312
0.0342407
0.0270996
0.0309448
0.0455322
0.0645142
0.0764771
0.0755615
0.06323240000000001
0.0494385
0.0418091
0.036193800000000005
0.0354004
0.0407104
0.046875
0.0536499
0.0545044
0.049255400000000005
0.0460815
0.0473022
0.0506592
0.0533447
0.0531006
0.052612300000000015
0.05242919999999999
0.055419900000000015
0.0645752
0.0752563
0.0824585
0.0804443
0.06988530000000001
0.0614014
0.0622559
0.0770264
0.0986328
0.107422
0.100037
0.0820923
0.0671387
0.0612183
0.06164550000000001
0.0557861
0.046936
0.0480347
0.05780030000000001
0.06530760000000001
0.0610962
0.050293
0.0369263
0.0267334
0.0214233
0.0206299
0.0124512
0.00323486
0.000488281
0.00524902
0.0213013
0.0386963
0.0476074
0.0472412
0.0384521
0.0317383
0.0331421
0.034362800000000006
0.0372925
0.0369263
0.03302
0.027771
0.022522
0.0144653
0.00750732
0.011718799999999998
0.039856
0.102356
0.199524
0.344788
0.549194
0.770142
0.938293
0.977356
0.850403
0.589966
0.290588
0.0510864
-0.0756836
-0.090332
-0.032714799999999995
0.0397949
0.0934448
0.12085
0.124817
0.110168
0.092041
0.0762939
0.0656738
0.06311040000000001
0.0686035
0.0831909
0.100769
0.106506
0.0958862
0.0846558
0.0777588
0.07574460000000001
0.07910160000000001
0.08300779999999999
0.0783691
0.0735474
0.0743408
0.0770264
0.0823975
0.0906982
0.0941162
0.0911865
0.0897217
0.0845947
0.0790405
0.08105470000000001
0.0877686
0.0999146
0.109558
0.117859
0.122009
0.116455
0.106812
0.100891
0.0993042
0.105652
0.111145
0.11303699999999997
0.113892
0.117371
0.124023
0.132629
0.140991
0.151367
0.1604
0.16925
0.178284
0.192871
0.210022
0.226196
0.239563
0.252319
0.267395
0.28009
0.281067
0.280579
0.28125
0.284241
0.29657
0.315979
0.32074
0.315247
0.301331
0.285889
0.27636700000000003
0.266113
0.247681
0.222839
0.197205
0.18103
0.171448
0.160706
0.146973
0.126343
0.109558
0.102661
0.0993652
0.0906982
0.07299800000000001
0.0529785
0.0490723
0.06854249999999999
0.0947266
0.10968
0.109253
0.0889282
0.064209
0.050354
0.0552368
0.07269289999999999
0.0911865
0.103821
0.107971
0.107178
0.105774
0.101501
0.0977783
0.0967407
0.0942993
0.0915527
0.09008789999999997
0.08691410000000001
0.0855713
0.0814819
0.08050539999999999
0.0865479
0.0961304
0.10437
0.108704
0.112427
0.118469
0.119019
0.114929
0.108276
0.101562
0.102112
0.106873
0.10888699999999997
0.106567
0.100586
0.093811
0.0852051
0.07910160000000001
0.07312010000000001
0.06671139999999999
0.06750489999999999
0.0805664
0.0960693
0.0982056
0.0889282
0.0734863
0.0635376
0.06518550000000001
0.0787354
0.08862300000000001
0.0879517
0.0756836
0.0596924
0.049255400000000005
0.0515747
0.06518550000000001
0.08300779999999999
0.0922852
0.088501
0.0715332
0.0488892
0.039917
0.0546875
0.0747681
0.090271
0.0908813
0.0775757
0.05694580000000001
0.037353500000000005
0.0291748
0.0368042
0.0548096
0.06555180000000001
0.0638428
0.0517578
0.039917
0.0375977
0.045166000000000005
0.0535278
0.0563965
0.052002
0.0479736
0.0560913
0.06988530000000001
0.0806885
0.0760498
0.0558472
0.0323486
0.0169067
0.0128784
0.0198364
0.0415649
0.0675659
0.07769780000000001
0.0730591
0.052917499999999985
0.0288086
0.016967799999999998
0.021667500000000003
0.036132800000000014
0.0525513
0.06555180000000001
0.0717163
0.07269289999999999
0.06762699999999999
0.0598145
0.0480347
0.0368042
0.0287476
0.026367200000000004
0.031616200000000004
0.0452881
0.0599976
0.0665283
0.0559082
0.0384521
0.0285645
0.0289307
0.0353394
0.0429077
0.0479736
0.0516357
0.062439
0.07910160000000001
0.0881958
0.086853
0.07244869999999999
0.0494385
0.0328369
0.0269775
0.0283203
0.033630400000000005
0.0448608
0.06311040000000001
0.07312010000000001
0.06323240000000001
0.0423584
0.020813
0.012146
0.017334
0.0305176
0.0443726
0.0505981
0.0557861
0.06555180000000001
0.0776367
0.0899048
0.0888062
0.0686035
0.0444946
0.022583
0.0151367
0.0240479
0.039978
0.053894
0.0560913
0.0483398
0.037231400000000005
0.033508300000000005
0.0363159
0.0396118
0.0430298
0.0464478
0.0472412
0.0470581
0.0529785
0.0657349
0.0756836
0.0715332
0.0535278
0.0300293
0.0183105
0.024292
0.0407715
0.05432130000000001
0.05432130000000001
0.0452881
0.034362800000000006
0.0308838
0.0338135
0.0383911
0.0437622
0.052063
0.0627441
0.06762699999999999
0.06738279999999999
0.0598145
0.052734400000000015
0.053710900000000006
0.0562744
0.0592041
0.0612183
0.0587158
0.0484009
0.0370483
0.0248413
0.019043
0.0206299
0.026367200000000004
0.0366821
0.0449829
0.0477905
0.0498657
0.0577393
0.06689450000000001
0.0697021
0.0704346
0.0671387
0.06658939999999999
0.0750122
0.07226560000000001
0.0582275
0.0423584
0.0299683
0.0251465
0.0349731
0.0419312
0.041870099999999986
0.0423584
0.0446167
0.0558472
0.0649414
0.059082
0.0442505
0.033081099999999995
0.032714799999999995
0.045105
0.061767599999999985
0.07519529999999999
0.0766602
0.0652466
0.0465698
0.0302734
0.0289917
0.0422974
0.0508423
0.052612300000000015
0.0465088
0.0351562
0.0259399
0.0261841
0.0350342
0.0488892
0.0620117
0.0706787
0.0755005
0.0703125
0.0581665
0.0460815
0.0366211
0.036438
0.043396
0.0534668
0.0691528
0.0911865
0.114929
0.13458299999999998
0.141663
0.136719
0.126343
0.121704
0.122498
0.121948
0.118896
0.109497
0.103455
0.104614
0.1073
0.105225
0.09741210000000003
0.083313
0.06842039999999999
0.0531616
0.041442900000000005
0.0388184
0.0447388
0.05432130000000001
0.0592651
0.0593872
0.0541382
0.0487671
0.0441284
0.0355835
0.0223389
0.00653076
-0.00915527
-0.0137939
-0.00280762
0.0132446
0.0237427
0.026123
0.024231
0.0217896
0.0195923
0.0184326
0.023193400000000003
0.035949699999999994
0.0634155
0.126282
0.254456
0.456909
0.703186
0.927979
1.03473
0.967896
0.741699
0.436523
0.157532
-0.0183716
-0.0794678
-0.0553589
0.00408936
0.0613403
0.09741210000000003
0.105652
0.0985107
0.0875854
0.0777588
0.06622310000000001
0.0645142
0.07562260000000001
0.0899658
0.08691410000000001
0.06854249999999999
0.0405884
0.0198975
0.0195923
0.034057599999999986
0.0507812
0.0619507
0.0692139
0.07598880000000001
0.0814819
0.0792236
0.06726069999999999
0.0463867
0.0286865
0.0265503
0.0473633
0.0723267
0.0858154
0.0891724
0.07910160000000001
0.0662842
0.0626221
0.0639038
0.0684814
0.0708008
0.06988530000000001
0.0726318
0.0779419
0.0819702
0.08227539999999997
0.0860596
0.0910034
0.0959473
0.104309
0.115906
0.126892
0.136047
0.138428
0.138
0.141663
0.150024
0.163269
0.183105
0.209229
0.230957
0.238708
0.231934
0.221375
0.218079
0.227417
0.24945100000000006
0.268982
0.281006
0.285461
0.285461
0.285034
0.282959
0.276428
0.261047
0.239624
0.218262
0.198853
0.182983
0.17266800000000002
0.151611
0.126831
0.0998535
0.0755615
0.06542970000000001
0.0631714
0.0599365
0.0558472
0.0531006
0.0521851
0.0487671
0.0422974
0.0374146
0.0415039
0.0479126
0.0545044
0.0561523
0.0548706
0.0525513
0.0509033
0.0541382
0.0582886
0.056457500000000015
0.0454712
0.034789999999999995
0.0325928
0.0397339
0.0498657
0.0542603
0.0533447
0.0473633
0.0404663
0.036499
0.0371704
0.0393066
0.0413818
0.0494385
0.0611572
0.0682373
0.067688
0.0611572
0.055542
0.053772
0.0551147
0.0549316
0.0510864
0.0488892
0.0481567
0.0465088
0.0449829
0.0457764
0.0463257
0.049682599999999986
0.0466919
0.0387573
0.026001
0.00976562
0.00140381
0.00646973
0.0179443
0.0265503
0.0285645
0.024353
0.0183716
0.0158691
0.0118408
0.0020752
-0.00866699
-0.0165405
-0.0199585
-0.0161743
-0.00610352
0.00592041
0.0112915
0.00976562
0.00531006
-0.00488281
-0.016235399999999997
-0.016967799999999998
-0.00408936
0.012085
0.0187378
0.012085
-0.00384521
-0.0224609
-0.031066900000000005
-0.0350952
-0.0325928
-0.0264282
-0.0204468
-0.0129395
-0.00689697
-0.00262451
-0.00354004
-0.0103149
-0.018981900000000003
-0.025634800000000003
-0.031066900000000005
-0.031555200000000005
-0.0179443
0.0020752
0.0124512
0.00323486
-0.0205078
-0.0402832
-0.049255400000000005
-0.045166000000000005
-0.0320435
-0.015930200000000002
-0.00579834
0.000305176
-0.00195312
-0.0119629
-0.0251465
-0.0366211
-0.040405300000000005
-0.0379028
-0.0304565
-0.0197754
-0.0100098
-0.0020752
0.00732422
0.014221200000000003
0.0101929
-0.00622559
-0.0270996
-0.045166000000000005
-0.0558472
-0.0501709
-0.024231
0.00823975
0.0274048
0.026794400000000003
0.00714111
-0.0214233
-0.0411987
-0.0426636
-0.03125
-0.0196533
-0.0106201
-0.00280762
0.00354004
0.00476074
0.00140381
-0.00854492
-0.0195923
-0.0209351
-0.016357399999999998
-0.0136108
-0.00708008
-0.000427246
0.00195312
-0.00189209
-0.0123901
-0.0185547
-0.0212402
-0.0218506
-0.0218506
-0.0202026
-0.016601599999999998
-0.0115356
-0.00616455
0.000915527
0.00732422
0.011779799999999998
0.0142822
0.0128174
0.00646973
-0.0012207
-0.00616455
-0.00628662
-0.0067749
-0.00738525
-0.0126953
-0.022033700000000003
-0.0249023
-0.0213623
-0.015441899999999996
-0.0106201
-0.0067749
-0.00866699
-0.0112915
-0.0107422
-0.00494385
0.00341797
0.00842285
0.006591800000000001
0.00372314
0.0067749
0.0101929
0.0128784
0.0134888
0.0132446
0.00231934
-0.0108643
-0.017761199999999998
-0.017761199999999998
-0.0110474
-0.00164795
-0.0010376
-0.00531006
-0.00805664
-0.00305176
0.0109253
0.024292
0.028198200000000007
0.0132446
-0.00695801
-0.0186157
-0.016052200000000003
-0.00384521
0.00854492
0.0161743
0.0181274
0.0136108
0.010376
0.00860596
0.00408936
-0.000610352
-0.00720215
-0.016357399999999998
-0.0182495
-0.0128784
-0.0067749
-0.00146484
0.00335693
0.00640869
0.00750732
0.00805664
0.0108032
0.010498
0.00231934
-0.00732422
-0.0144043
-0.0124512
-0.00506592
0.00305176
0.0101318
0.00506592
-0.00726318
-0.020813
-0.0241699
-0.015441899999999996
-0.00012207
0.00817871
-0.0007324219999999999
-0.0164185
-0.0297241
-0.0339966
-0.023864700000000003
-0.00622559
0.00512695
0.00457764
-0.00311279
-0.00799561
-0.00689697
-0.00231934
0.00463867
0.0109863
0.010681200000000002
0.00909424
0.0144653
0.0249023
0.0352783
0.0352783
0.0249634
0.0105591
0.0
-0.000976562
0.00653076
0.0171509
0.0250854
0.03302
0.028198200000000007
0.010437
-0.00543213
-0.0249634
-0.0408325
-0.0505981
-0.0474854
-0.0374146
-0.025634800000000003
-0.0177002
-0.0146484
-0.0197144
-0.0252075
-0.0300903
-0.038269
-0.043335000000000005
-0.0447388
-0.0432739
-0.0386963
-0.035461400000000004
-0.039917
-0.0452881
-0.0477295
-0.0430908
-0.0385742
-0.044799800000000015
-0.0587158
-0.06414790000000001
-0.0531006
-0.016235399999999997
0.0495605
0.152222
0.31604
0.536011
0.77179
0.935364
0.933044
0.742981
0.430969
0.120667
-0.08807369999999999
-0.166382
-0.138489
-0.0574951
0.0230103
0.07403560000000001
0.08526610000000001
0.0634155
0.031005900000000006
0.00354004
-0.0132446
-0.0206299
-0.0147705
0.00292969
0.0196533
0.0286865
0.0252075
0.00866699
-0.0106201
-0.0184326
-0.00915527
0.00689697
0.0147095
0.0125122
0.00720215
0.00506592
0.0137939
0.0268555
0.034179699999999986
0.03125
0.015808100000000002
-0.00427246
-0.0170898
-0.0125122
0.000976562
0.012085
0.0196533
0.0189209
0.0181274
0.0147705
0.0108643
0.0139771
0.0189209
0.0249634
0.0332642
0.0412598
0.0449829
0.0465088
0.0477295
0.0551758
0.0742798
0.0889282
0.0964966
0.0935669
0.08325199999999999
0.0831909
0.0952759
0.113831
0.136902
0.15332
0.158325
0.162231
0.166504
0.173645
0.182007
0.193359
0.20953400000000005
0.224854
0.233887
0.234192
0.2323
0.22876
0.222534
0.216064
0.207214
0.185852
0.15545699999999998
0.123291
0.093811
0.07281489999999999
0.0598145
0.0535278
0.046875
0.0358887
0.0224609
0.00439453
-0.0129395
-0.0194702
-0.0206299
-0.0210571
-0.0221558
-0.016479499999999998
-0.00317383
0.0119629
0.0213013
0.015319799999999996
-0.00256348
-0.0223389
-0.034118699999999995
-0.031555200000000005
-0.0248413
-0.0216064
-0.021667500000000003
-0.0221558
-0.0197144
-0.013916
-0.00842285
-0.00610352
-0.00671387
-0.00762939
-0.0115356
-0.0134888
-0.0100708
-0.00482178
-0.00842285
-0.016662599999999996
-0.0181274
-0.0115356
0.00323486
0.0214233
0.030212400000000007
0.019043
-0.00317383
-0.02771
-0.0366821
-0.0266113
-0.012756299999999998
-0.003479
-0.0020752
-0.00909424
-0.0139771
-0.0135498
-0.017211900000000002
-0.0252686
-0.0380249
-0.0534058
-0.059509300000000015
-0.0529785
-0.0392456
-0.027771
-0.022033700000000003
-0.0201416
-0.026916500000000003
-0.0353394
-0.0408325
-0.036987300000000015
-0.0281372
-0.0219727
-0.0245361
-0.0368652
-0.0513916
-0.062439
-0.0682373
-0.06610110000000001
-0.0587158
-0.0473633
-0.0397949
-0.0393677
-0.0387573
-0.0463867
-0.0580444
-0.0639038
-0.0621948
-0.0541992
-0.041870099999999986
-0.0291138
-0.0182495
-0.0119629
-0.0200195
-0.0407715
-0.0647583
-0.08551030000000001
-0.08874510000000001
-0.0795288
-0.06579589999999999
-0.0544434
-0.0546875
-0.0619507
-0.06604
-0.065979
-0.0623169
-0.0560913
-0.0473633
-0.0391235
-0.0334473
-0.0370483
-0.048584
-0.0600586
-0.06762699999999999
-0.06835939999999999
-0.0619507
-0.049804699999999986
-0.0337524
-0.0269775
-0.0342407
-0.0427246
-0.057251
-0.0726318
-0.0784912
-0.07482910000000001
-0.0634155
-0.0497437
-0.0383911
-0.031616200000000004
-0.0317993
-0.0317993
-0.0305786
-0.0324707
-0.036987300000000015
-0.0454712
-0.0535278
-0.0509033
-0.0419312
-0.0343018
-0.0380249
-0.0453491
-0.0464478
-0.0392456
-0.0290527
-0.0248413
-0.0287476
-0.036132800000000014
-0.0437622
-0.0501709
-0.0510864
-0.0421143
-0.0264893
-0.00439453
0.0147095
0.013855
-0.00305176
-0.0263062
-0.0487061
-0.0546265
-0.0487061
-0.0397339
-0.0286865
-0.0123291
0.00152588
0.00463867
-0.00524902
-0.0235596
-0.039917
-0.049804699999999986
-0.048645
-0.0372925
-0.015441899999999996
0.0139771
0.0379028
0.045898400000000006
0.0273438
-0.00695801
-0.0393066
-0.0493774
-0.034179699999999986
-0.0113525
-0.00268555
-0.00714111
-0.016662599999999996
-0.022033700000000003
-0.0210571
-0.015441899999999996
-0.00878906
-0.00299072
-0.00201416
0.00262451
0.0112915
0.0180054
0.0178833
0.0141602
0.00909424
0.00531006
0.00445557
0.00756836
0.0109253
0.0100708
0.00482178
-0.000549316
-0.00646973
-0.0100098
-0.00311279
0.0106201
0.0214844
0.0273438
0.02771
0.0174561
0.00897217
0.0132446
0.0231323
0.0289917
0.033325199999999985
0.0370483
0.0355835
0.0324707
0.032958999999999995
0.0383301
0.0444336
0.0470581
0.0460815
0.052002
0.06842039999999999
0.08154299999999999
0.0779419
0.0593872
0.0302734
0.0012207
-0.016723599999999998
-0.0230713
-0.022644
-0.018981900000000003
-0.0134277
-0.00769043
0.00152588
0.0135498
0.0169067
0.0157471
0.0128784
0.00811768
0.0118408
0.0216064
0.0300293
0.031860400000000004
0.0234985
0.00891113
-0.00396729
-0.00622559
-0.00390625
0.000854492
0.00543213
0.00897217
0.012756299999999998
0.0148315
0.0230713
0.0533447
0.127136
0.264038
0.477661
0.730957
0.942261
1.01984
0.911499
0.653137
0.333801
0.0667725
-0.0821533
-0.10888699999999997
-0.055603
0.0234375
0.0875854
0.122192
0.124756
0.106628
0.0823975
0.0638428
0.0585938
0.0596313
0.0650635
0.07403560000000001
0.08264160000000001
0.086792
0.0820312
0.07281489999999999
0.0675659
0.07208250000000001
0.0812378
0.08752439999999999
0.08660889999999999
0.07916260000000001
0.0670776
0.0635376
0.0687866
0.0723267
0.0701294
0.0643311
0.0671387
0.0801392
0.0966187
0.113647
0.112244
0.0990601
0.0811157
0.0691528
0.0723267
0.0913696
0.113281
0.127441
0.12738
0.120361
0.10907
0.093811
0.0825806
0.0813599
0.0967407
0.123901
0.151367
0.171631
0.180176
0.181946
0.183655
0.195007
0.217163
0.23645
0.246643
0.249207
0.245972
0.241211
0.240967
0.250244
0.266663
0.290588
0.31195100000000003
0.326477
0.33618200000000004
0.335999
0.329529
0.322021
0.312683
0.30249000000000004
0.28527800000000003
0.261292
0.239685
0.218445
0.200867
0.18634
0.172119
0.157166
0.144043
0.13269
0.118408
0.0996094
0.0788574
0.0644531
0.06463619999999999
0.0801392
0.106201
0.123047
0.12793
0.121216
0.104187
0.08374019999999999
0.0700073
0.06622310000000001
0.07269289999999999
0.08264160000000001
0.0947266
0.10907
0.117859
0.120117
0.116455
0.106018
0.0951538
0.0827637
0.07281489999999999
0.0723267
0.0859375
0.107727
0.120911
0.123474
0.114929
0.10199
0.0943604
0.0943604
0.100891
0.105591
0.107849
0.113647
0.123291
0.131348
0.12854000000000002
0.119385
0.113403
0.11138900000000003
0.110168
0.107422
0.0973511
0.0858154
0.0824585
0.0910034
0.105286
0.116028
0.113464
0.0991821
0.08117680000000001
0.0699463
0.0680542
0.06817630000000001
0.0690308
0.0772705
0.093689
0.110046
0.120728
0.117554
0.102112
0.0797729
0.0643921
0.06427000000000001
0.0773926
0.09198
0.100037
0.0966797
0.08514400000000001
0.0668335
0.055419900000000015
0.05505369999999999
0.06164550000000001
0.0715332
0.0775757
0.0794678
0.0802002
0.0845947
0.0935669
0.0976562
0.0997314
0.098999
0.0877686
0.07373049999999999
0.0627441
0.05688480000000001
0.0581055
0.067749
0.08300779999999999
0.0882568
0.07617189999999999
0.0581055
0.045166000000000005
0.0499268
0.06781010000000001
0.08050539999999999
0.0829468
0.07373049999999999
0.0649414
0.0658569
0.0742188
0.0799561
0.0778809
0.06750489999999999
0.0577393
0.0567017
0.06323240000000001
0.0689697
0.0733032
0.078125
0.08178710000000003
0.0808716
0.0782471
0.0742798
0.0730591
0.07446289999999997
0.0755005
0.07592769999999999
0.0750122
0.0734863
0.07360839999999999
0.0750122
0.07910160000000001
0.07891849999999999
0.07299800000000001
0.06542970000000001
0.0595703
0.0556641
0.053833000000000006
0.059021
0.07244869999999999
0.0872803
0.0957031
0.0909424
0.0783081
0.0657349
0.0587769
0.0630493
0.0788574
0.097168
0.0982056
0.0860596
0.07281489999999999
0.0612183
0.0570679
0.0610962
0.0682373
0.07403560000000001
0.08105470000000001
0.08526610000000001
0.0858154
0.0838623
0.0786133
0.07324220000000001
0.06817630000000001
0.069458
0.0777588
0.088501
0.0956421
0.0950317
0.08416749999999999
0.06292719999999999
0.0457153
0.0422974
0.060729999999999985
0.08862300000000001
0.10376
0.10614
0.0915527
0.06555180000000001
0.0495605
0.0495605
0.0582886
0.074585
0.0911865
0.0957642
0.0941162
0.08813480000000001
0.07733150000000001
0.0700073
0.0673218
0.06793210000000001
0.0705566
0.0753784
0.08374019999999999
0.088562
0.0824585
0.0705566
0.06292719999999999
0.06323240000000001
0.0703735
0.079834
0.08770750000000001
0.0882568
0.08154299999999999
0.0760498
0.07250980000000001
0.06817630000000001
0.0634155
0.0580444
0.053955099999999985
0.06164550000000001
0.0802002
0.0940552
0.0973511
0.0926514
0.0842285
0.0734863
0.0664062
0.0648193
0.06842039999999999
0.074646
0.0862427
0.09552
0.0932617
0.0827637
0.0671387
0.0584106
0.0576172
0.06060790000000001
0.0628662
0.0656738
0.072937
0.08660889999999999
0.107178
0.126831
0.133667
0.126892
0.107849
0.08959960000000003
0.0802002
0.0847778
0.097168
0.112183
0.124329
0.127747
0.107117
0.07336430000000001
0.0424194
0.0200195
0.0109863
0.014892600000000002
0.0358276
0.06610110000000001
0.0861816
0.0911255
0.0772095
0.0541382
0.0371094
0.0301514
0.0299683
0.0339966
0.0386353
0.0470581
0.06060790000000001
0.0697632
0.0699463
0.0598145
0.0427246
0.0280762
0.016052200000000003
0.010498
0.0150146
0.0352783
0.0769653
0.143433
0.25006100000000003
0.4169310000000001
0.6323850000000001
0.856384
1.0094
1.01917
0.868835
0.6054689999999999
0.322266
0.109314
0.00689697
-0.00561523
0.0299072
0.0756836
0.111328
0.130066
0.132874
0.121887
0.11261
0.104553
0.100891
0.0999756
0.0994263
0.10321
0.108765
0.111572
0.109802
0.104187
0.0926514
0.0813599
0.07855219999999999
0.0794678
0.08398439999999999
0.08770750000000001
0.0921021
0.0987549
0.107788
0.113953
0.113281
0.111572
0.102295
0.0921631
0.083313
0.0847168
0.0928345
0.0965576
0.0968018
0.0957031
0.0964966
0.104492
0.115601
0.129456
0.139343
0.133301
0.123413
0.114685
0.111511
0.118713
0.131104
0.141235
0.152771
0.163452
0.174011
0.181274
0.183167
0.184631
0.185669
0.192688
0.211365
0.239746
0.270813
0.292969
0.304321
0.305115
0.2995
0.296387
0.302551
0.316772
0.330139
0.337158
0.332275
0.317749
0.295105
0.27356
0.255432
0.243591
0.231445
0.21228
0.192749
0.182312
0.17334000000000002
0.1651
0.150513
0.126343
0.0993652
0.07574460000000001
0.0648193
0.0701294
0.0859375
0.103577
0.119202
0.12323
0.114319
0.0924683
0.0662842
0.0462036
0.0410767
0.0494995
0.0622559
0.0780029
0.0951538
0.106689
0.108643
0.101318
0.0870972
0.074585
0.0665283
0.0620117
0.0656738
0.078125
0.0919189
0.107971
0.120972
0.117004
0.0950317
0.0686035
0.053833000000000006
0.056457500000000015
0.071167
0.0879517
0.0976562
0.0985107
0.0928345
0.0855713
0.0803833
0.08117680000000001
0.08416749999999999
0.0836182
0.0813599
0.07562260000000001
0.0743408
0.076416
0.0780029
0.0780029
0.0737915
0.06591799999999999
0.0620117
0.0637207
0.0645752
0.0575562
0.0470581
0.039978
0.0392456
0.043396
0.0470581
0.0460205
0.0455933
0.0473022
0.0479736
0.0460205
0.0429688
0.0389404
0.0353394
0.0397339
0.0504761
0.05688480000000001
0.0542603
0.043945300000000014
0.0386353
0.0480957
0.061767599999999985
0.0701904
0.07189939999999999
0.0630493
0.0500488
0.036438
0.0278931
0.0217285
0.0192261
0.0234375
0.0322876
0.0422974
0.0462036
0.0445557
0.041626
0.040405300000000005
0.036132800000000014
0.0298462
0.0219116
0.0185547
0.0248413
0.0365601
0.0474854
0.0541382
0.049987800000000006
0.0368042
0.0219116
0.014099100000000003
0.0118408
0.016052200000000003
0.0259399
0.036254900000000014
0.0424805
0.0422363
0.0351562
0.026001
0.0214844
0.021667500000000003
0.0247803
0.0296631
0.0388184
0.043335000000000005
0.041687
0.0385132
0.0349731
0.0291748
0.0213623
0.0189209
0.0232544
0.0384521
0.0496216
0.0487671
0.0391235
0.0258789
0.0146484
0.0111694
0.017028799999999997
0.031311
0.0508423
0.0645142
0.064209
0.0512085
0.031311
0.0130005
0.00671387
0.0128174
0.0266113
0.0410767
0.049682599999999986
0.048950199999999985
0.038269
0.0200195
0.00640869
0.00653076
0.0171509
0.0334473
0.0521851
0.072876
0.083374
0.0795288
0.0650635
0.041626
0.022399900000000004
0.0123901
0.0143433
0.0263062
0.0437012
0.05792240000000001
0.0664673
0.06835939999999999
0.0657349
0.0563354
0.0437012
0.031005900000000006
0.0228271
0.024108900000000003
0.0371704
0.0565186
0.0765991
0.0859985
0.0721436
0.0457153
0.0265503
0.024353
0.0379639
0.0534058
0.0628052
0.062439
0.057678199999999985
0.0548706
0.0548706
0.0567017
0.0540161
0.0490112
0.0484009
0.0536499
0.0639038
0.0709229
0.0715942
0.0708618
0.069458
0.0647583
0.0613403
0.0637207
0.0591431
0.0493164
0.0388794
0.0328369
0.0404663
0.0545044
0.06658939999999999
0.0645142
0.0500488
0.0372925
0.034729
0.0424805
0.055542
0.0665283
0.0735474
0.0769653
0.07989500000000001
0.0819702
0.0809937
0.0772095
0.0699463
0.0598755
0.0455933
0.0400391
0.0525513
0.067688
0.069397
0.0588989
0.0413818
0.0305786
0.0350342
0.0484009
0.0634155
0.07281489999999999
0.0721436
0.067688
0.0636597
0.0631714
0.06750489999999999
0.07360839999999999
0.0738525
0.06671139999999999
0.06604
0.072876
0.08325199999999999
0.0865479
0.0799561
0.0610962
0.0436401
0.0441895
0.055481
0.06329349999999999
0.0700073
0.07531739999999999
0.0780029
0.0813599
0.08312989999999999
0.0821533
0.0827026
0.0871582
0.0916748
0.0993652
0.104065
0.104065
0.0973511
0.08862300000000001
0.08923339999999999
0.101074
0.116272
0.126404
0.127441
0.112732
0.08514400000000001
0.0562134
0.039856
0.0351562
0.0419312
0.0479736
0.053772
0.052612300000000015
0.0476685
0.0507812
0.0596924
0.06665039999999997
0.06658939999999999
0.0561523
0.039856
0.0292969
0.026916500000000003
0.0275879
0.0319214
0.0407715
0.0517578
0.057373
0.0575562
0.0502319
0.0354004
0.0234375
0.0212402
0.033081099999999995
0.0600586
0.107727
0.186707
0.327148
0.5311279999999999
0.7581180000000001
0.93689
0.987915
0.873291
0.625671
0.331665
0.0909424
-0.043945300000000014
-0.0706787
-0.0236816
0.0477905
0.1073
0.142334
0.152893
0.14666700000000002
0.134399
0.11303699999999997
0.08935549999999999
0.07373049999999999
0.078125
0.0936279
0.102539
0.10321
0.0986938
0.09008789999999997
0.0836182
0.07714839999999999
0.072876
0.07482910000000001
0.08142089999999999
0.0894165
0.0950928
0.10083
0.105103
0.105957
0.104492
0.104797
0.106812
0.110352
0.106445
0.0985107
0.08923339999999999
0.08142089999999999
0.08227539999999997
0.0947876
0.109619
0.115051
0.113159
0.10675
0.09729
0.0926514
0.0960083
0.106567
0.120422
0.136597
0.14941400000000002
0.160828
0.17334000000000002
0.17804
0.175598
0.172913
0.17260699999999998
0.171692
0.171448
0.177979
0.195679
0.216919
0.234253
0.242249
0.246704
0.25311300000000003
0.270203
0.291565
0.311035
0.321533
0.319336
0.313293
0.306824
0.302856
0.298218
0.291565
0.27313200000000004
0.246582
0.220947
0.193848
0.173401
0.15802
0.140259
0.114319
0.0933838
0.08288569999999999
0.08117680000000001
0.086792
0.092041
0.0935669
0.0952148
0.0864258
0.0755005
0.0657349
0.0570679
0.0535278
0.060546900000000015
0.0715332
0.08184810000000001
0.0856323
0.0752563
0.0609131
0.0522461
0.053894
0.0639038
0.07733150000000001
0.0831909
0.0821533
0.07482910000000001
0.06518550000000001
0.0622559
0.0619507
0.0618286
0.0670776
0.081665
0.0914917
0.08966060000000001
0.0783691
0.0621948
0.0514526
0.0552368
0.06933589999999999
0.08416749999999999
0.0903931
0.0864868
0.0794067
0.0841064
0.0938721
0.0928345
0.0829468
0.06811519999999999
0.0636597
0.07403560000000001
0.08093260000000001
0.07250980000000001
0.0531006
0.0357056
0.0296631
0.0345459
0.044006300000000005
0.0483398
0.0454712
0.0443115
0.046814
0.0477905
0.044006300000000005
0.041137699999999985
0.0487061
0.0656738
0.07855219999999999
0.0735474
0.0509033
0.023864700000000003
0.0144653
0.0249023
0.0446777
0.0599365
0.0584717
0.042175300000000006
0.0237427
0.015930200000000002
0.0234985
0.0358887
0.0425415
0.0457764
0.0371094
0.0245972
0.0267334
0.038147
0.050354
0.0548096
0.045043900000000005
0.0319824
0.0246582
0.0294189
0.0407104
0.0494995
0.0548096
0.0493164
0.034423800000000004
0.0197754
0.0157471
0.0257568
0.0413818
0.049682599999999986
0.0466309
0.0385132
0.03302
0.034362800000000006
0.0469971
0.0545654
0.048950199999999985
0.0425415
0.0371704
0.0307007
0.0268555
0.0265503
0.0291748
0.036987300000000015
0.0460815
0.0509033
0.0477905
0.043945300000000014
0.0410767
0.0405884
0.0446777
0.0529785
0.0582275
0.0536499
0.041748
0.0319824
0.0267334
0.0307007
0.0455933
0.0596924
0.0621948
0.0495605
0.034118699999999995
0.0259399
0.0258789
0.0339966
0.0389404
0.0393066
0.0464478
0.0582275
0.06750489999999999
0.06555180000000001
0.052673300000000006
0.0354004
0.0245972
0.0288086
0.0428467
0.0583496
0.0649414
0.0626221
0.0628052
0.0559082
0.042175300000000006
0.0302734
0.0254517
0.0270996
0.0332642
0.0404663
0.048584
0.0560913
0.0600586
0.0610352
0.059021
0.0533447
0.048584
0.0488281
0.0540771
0.0664673
0.0841064
0.0960693
0.0960083
0.0913086
0.0806885
0.0668335
0.0588379
0.0570068
0.0584106
0.059509300000000015
0.060424800000000015
0.0650635
0.0652466
0.0574341
0.0493774
0.0387573
0.024292
0.0153809
0.0115356
0.013916
0.0206299
0.0263062
0.0300293
0.0365601
0.0443115
0.0473633
0.0429077
0.0304565
0.0158691
0.00830078
0.0140381
0.0253296
0.0397949
0.052124
0.0521851
0.0396118
0.0233765
0.00482178
-0.00933838
-0.00726318
0.012756299999999998
0.0521851
0.113159
0.211365
0.366516
0.576538
0.7910159999999999
0.925659
0.914673
0.751526
0.49231
0.216064
0.0134888
-0.0891113
-0.0992432
-0.0438232
0.0358887
0.105286
0.13684100000000002
0.129761
0.10614
0.0922852
0.0939331
0.102356
0.10583499999999997
0.101013
0.0943604
0.0928955
0.0966797
0.10498
0.10907
0.106506
0.105347
0.100769
0.0957642
0.08923339999999999
0.0825806
0.0780029
0.08178710000000003
0.0944214
0.109497
0.119995
0.12616
0.124023
0.10968
0.0947266
0.0901489
0.0991821
0.120544
0.149841
0.169434
0.170105
0.151428
0.123779
0.103821
0.0978394
0.106323
0.121582
0.13708499999999998
0.14679
0.151062
0.154541
0.156433
0.167175
0.178101
0.17944300000000002
0.178528
0.180847
0.190674
0.210388
0.231812
0.249268
0.260925
0.256958
0.247803
0.24646
0.25415
0.270142
0.296692
0.327148
0.348633
0.350281
0.337158
0.316589
0.299316
0.292725
0.288452
0.281006
0.269043
0.248352
0.22332800000000005
0.19519
0.167297
0.147827
0.135254
0.120667
0.113831
0.108582
0.105652
0.107239
0.112671
0.115784
0.114014
0.108398
0.103577
0.105103
0.110962
0.123291
0.131165
0.127625
0.111816
0.0897827
0.07745360000000001
0.08154299999999999
0.08813480000000001
0.090332
0.0842896
0.08081050000000001
0.0864868
0.0996704
0.113464
0.120056
0.119934
0.116882
0.115662
0.121521
0.130188
0.130554
0.126648
0.119873
0.108093
0.0999146
0.095459
0.0946045
0.0979614
0.100525
0.104431
0.110779
0.114014
0.118652
0.110718
0.0975342
0.090332
0.0886841
0.0919189
0.0957031
0.101074
0.104614
0.101562
0.0933228
0.0875854
0.0875854
0.0925903
0.104431
0.118713
0.116516
0.103271
0.0847168
0.072937
0.0726318
0.0794678
0.0877686
0.0950928
0.0983887
0.0997314
0.0997314
0.0947876
0.08886720000000001
0.0820312
0.0714722
0.06610110000000001
0.07507319999999999
0.090271
0.10144
0.102539
0.0962524
0.09375
0.0949097
0.0987549
0.0974731
0.0909424
0.0788574
0.0719604
0.0716553
0.0692139
0.0651245
0.0581665
0.0546875
0.06213380000000001
0.0743408
0.07971189999999999
0.079834
0.07733150000000001
0.07482910000000001
0.07360839999999999
0.0706787
0.0717163
0.0782471
0.0908203
0.104797
0.106995
0.0971069
0.08172610000000001
0.0769043
0.0823975
0.08154299999999999
0.0726318
0.0551147
0.0428467
0.0464478
0.0543823
0.0593872
0.0640869
0.0734863
0.0844116
0.08673099999999999
0.078125
0.06842039999999999
0.0678711
0.0756836
0.08752439999999999
0.0988159
0.102051
0.0941772
0.0811157
0.0730591
0.0691528
0.06579589999999999
0.06604
0.0634155
0.060791
0.0575562
0.05896000000000001
0.061767599999999985
0.0664062
0.06750489999999999
0.067688
0.06793210000000001
0.07360839999999999
0.0858154
0.09008789999999997
0.0854492
0.07391360000000001
0.0583496
0.0461426
0.0436401
0.0487061
0.0522461
0.0545654
0.0568237
0.0649414
0.07482910000000001
0.08380130000000001
0.0856323
0.0842896
0.0841064
0.08050539999999999
0.0756836
0.07440189999999999
0.0812988
0.0905762
0.0991821
0.10376
0.0967407
0.08142089999999999
0.0703735
0.0690308
0.0743408
0.081665
0.08154299999999999
0.07220460000000001
0.0628052
0.0575562
0.0541382
0.0497437
0.0477905
0.0446167
0.043457
0.0475464
0.0516357
0.044006300000000005
0.026367200000000004
0.00793457
0.000244141
0.0124512
0.035461400000000004
0.0533447
0.0579834
0.0531616
0.0435791
0.033081099999999995
0.027648900000000004
0.0298462
0.043457
0.0559692
0.0548706
0.045043900000000005
0.033508300000000005
0.033081099999999995
0.0448608
0.0845947
0.150391
0.254578
0.425171
0.6564939999999999
0.8856200000000001
1.02588
1.00714
0.816772
0.522278
0.228394
0.0227051
-0.0620728
-0.044067400000000014
0.022399900000000004
0.0860596
0.122498
0.134399
0.130859
0.116577
0.097168
0.08093260000000001
0.07189939999999999
0.07574460000000001
0.0856323
0.0941162
0.0956421
0.0924683
0.0870972
0.0870972
0.09021
0.08636469999999999
0.07855219999999999
0.0727539
0.0695801
0.0686646
0.07769780000000001
0.0964355
0.10907
0.114624
0.106201
0.08923339999999999
0.0788574
0.08227539999999997
0.08660889999999999
0.0847778
0.0819702
0.07916260000000001
0.08264160000000001
0.0964355
0.114258
0.126831
0.126953
0.114624
0.101562
0.0988159
0.104065
0.118835
0.136047
0.14856
0.152771
0.150696
0.149658
0.14666700000000002
0.145203
0.151855
0.165955
0.18396
0.200806
0.208069
0.212891
0.227539
0.248474
0.268127
0.283386
0.293457
0.305481
0.31604
0.319092
0.317261
0.313171
0.307678
0.306335
0.304321
0.299927
0.287659
0.266479
0.241882
0.217346
0.19458
0.175049
0.157776
0.143677
0.133484
0.126099
0.117798
0.114441
0.114136
0.114319
0.113892
0.113708
0.109619
0.102173
0.0938721
0.08673099999999999
0.08325199999999999
0.08227539999999997
0.0883789
0.0991821
0.112732
0.118835
0.111694
0.0963745
0.0883789
0.0830688
0.08105470000000001
0.08551030000000001
0.0950317
0.107178
0.119385
0.125854
0.118713
0.106445
0.0964966
0.0967407
0.111572
0.127075
0.132507
0.122192
0.100891
0.08312989999999999
0.07598880000000001
0.0856323
0.102844
0.11499
0.117615
0.111938
0.108459
0.108826
0.112549
0.113647
0.110474
0.105225
0.1026
0.09552
0.0870972
0.08526610000000001
0.08886720000000001
0.0892944
0.0813599
0.0701904
0.0609131
0.0568237
0.06488039999999999
0.07519529999999999
0.0778809
0.0733032
0.0626831
0.0559692
0.0571289
0.0601196
0.0593872
0.0599976
0.06311040000000001
0.0701904
0.0743408
0.071167
0.0600586
0.0477905
0.041626
0.0509033
0.06579589999999999
0.07617189999999999
0.07507319999999999
0.0611572
0.0484619
0.0477905
0.0523682
0.0608521
0.0645142
0.056640599999999985
0.0428467
0.0339966
0.034362800000000006
0.0380249
0.0393677
0.0322876
0.024231
0.026001
0.0351562
0.0479126
0.0585327
0.0620728
0.0598145
0.0540771
0.0502319
0.06152340000000001
0.07226560000000001
0.07128910000000001
0.0505981
0.0215454
-0.00177002
-0.00646973
0.00653076
0.0291138
0.0474854
0.0514526
0.0436401
0.029785200000000005
0.0231323
0.0307007
0.0459595
0.0620117
0.0719604
0.0714722
0.0669556
0.0576172
0.0491943
0.0369263
0.016601599999999998
0.00354004
0.005737300000000001
0.0210571
0.0385132
0.0501099
0.051147500000000005
0.0444336
0.0349121
0.0308838
0.0358276
0.0473633
0.0629883
0.07360839999999999
0.07507319999999999
0.06817630000000001
0.053833000000000006
0.0383911
0.0264893
0.0214233
0.025817900000000005
0.036132800000000014
0.0457153
0.0515747
0.0524902
0.0456543
0.0435181
0.0471191
0.0505371
0.0472412
0.0405884
0.0446777
0.0603027
0.0784912
0.0890503
0.078186
0.0471191
0.0145874
0.000183105
0.0110474
0.035949699999999994
0.057678199999999985
0.0617065
0.0479736
0.0368652
0.0338745
0.0367432
0.0441895
0.0557251
0.0669556
0.0708008
0.0674438
0.0592651
0.050354
0.0472412
0.0535889
0.0647583
0.0703125
0.0650635
0.0541992
0.0443115
0.034362800000000006
0.0320435
0.032226599999999994
0.038147
0.0488281
0.0608521
0.0709229
0.0789795
0.07745360000000001
0.0692139
0.0541992
0.0457764
0.0570679
0.07598880000000001
0.0838623
0.0776367
0.0559692
0.0358276
0.0274048
0.0321045
0.0493774
0.0718384
0.08398439999999999
0.081604
0.07110599999999999
0.0557251
0.0454712
0.0478516
0.0512085
0.050354
0.0471191
0.0423584
0.0465698
0.0608521
0.0695801
0.0682373
0.0582275
0.048645
0.0422974
0.041320800000000005
0.0452271
0.0570068
0.0733032
0.0860596
0.0844116
0.06927489999999999
0.0490112
0.0283203
0.0181885
0.0209961
0.0302734
0.041748
0.0543823
0.0621948
0.057678199999999985
0.0482788
0.0392456
0.0407104
0.055542
0.07360839999999999
0.0821533
0.0773926
0.0668335
0.0556641
0.0465088
0.0438232
0.0491943
0.0568237
0.0640869
0.059021
0.0507202
0.0437622
0.0380249
0.0349731
0.039856
0.0438843
0.0456543
0.0543823
0.07244869999999999
0.0905762
0.0998535
0.0976562
0.0836182
0.06658939999999999
0.0627441
0.0678711
0.07733150000000001
0.0860596
0.0914917
0.0923462
0.0922241
0.0946655
0.0991821
0.106812
0.111145
0.11138900000000003
0.100159
0.07440189999999999
0.048584
0.0378418
0.0385742
0.039978
0.0338135
0.0236816
0.0198364
0.0257568
0.0332642
0.0395508
0.0430298
0.0428467
0.036438
0.0308228
0.031066900000000005
0.036438
0.0449829
0.0517578
0.051696800000000015
0.0479736
0.041626
0.042175300000000006
0.0402222
0.034789999999999995
0.0234985
0.0157471
0.026062
0.0679932
0.159302
0.310608
0.523804
0.773682
0.985718
1.06592
0.965637
0.705811
0.378052
0.101135
-0.041687
-0.0497437
0.0209351
0.104187
0.146301
0.143433
0.110168
0.06872560000000001
0.0461426
0.051147500000000005
0.07110599999999999
0.088562
0.0984497
0.0921021
0.0823975
0.0782471
0.07574460000000001
0.0770264
0.07855219999999999
0.0792847
0.0799561
0.0784912
0.07971189999999999
0.07971189999999999
0.0787354
0.07714839999999999
0.0782471
0.0807495
0.07531739999999999
0.06488039999999999
0.056457500000000015
0.0488281
0.0490723
0.060729999999999985
0.0766602
0.0906372
0.0891724
0.07916260000000001
0.0706177
0.071167
0.0777588
0.0853271
0.0927734
0.0959473
0.100891
0.109436
0.12133800000000003
0.132202
0.131653
0.118835
0.103333
0.0978394
0.107727
0.125305
0.140381
0.152649
0.16333
0.178894
0.192444
0.209595
0.223145
0.23162800000000006
0.234619
0.234192
0.233521
0.239807
0.257263
0.277588
0.294983
0.297852
0.289917
0.277527
0.26757800000000004
0.255981
0.244324
0.23590100000000006
0.228149
0.215332
0.184509
0.146851
0.111511
0.08843989999999999
0.0847778
0.0912476
0.0996704
0.0993042
0.08697510000000001
0.0680542
0.0499268
0.0385132
0.0371704
0.039917
0.0490112
0.06164550000000001
0.0664062
0.0630493
0.057312
0.0534058
0.0541992
0.0601196
0.06933589999999999
0.07226560000000001
0.06762699999999999
0.0549316
0.041137699999999985
0.0368652
0.0415039
0.0494385
0.0552368
0.0557861
0.0535278
0.0509033
0.0504761
0.0546875
0.0568237
0.0560303
0.0588379
0.0697021
0.0794678
0.07891849999999999
0.0620117
0.034668
0.017211900000000002
0.0227051
0.0446167
0.06658939999999999
0.0790405
0.0705566
0.049133300000000005
0.030334500000000007
0.0234985
0.027832
0.033508300000000005
0.0374756
0.0454712
0.0581665
0.0686035
0.06555180000000001
0.0466309
0.0137329
-0.0195312
-0.032958999999999995
-0.0184937
0.00982666
0.036193800000000005
0.0426025
0.0261841
0.00640869
-0.0032959000000000005
-0.000854492
0.00726318
0.0178223
0.0268555
0.0292969
0.0323486
0.036499
0.031860400000000004
0.020752
0.00640869
-0.00457764
-0.00891113
-0.00848389
-0.00579834
0.000915527
0.004516600000000001
0.0043335
0.00476074
0.00439453
0.00848389
0.013855
0.0136719
0.00836182
0.00354004
0.00390625
0.00921631
0.0197144
0.0313721
0.036499
0.033508300000000005
0.0250244
0.013916
0.000671387
-0.0136719
-0.0219116
-0.0203857
-0.0112305
-0.00378418
0.00213623
0.00769043
0.0119019
0.0184937
0.0237427
0.0257568
0.026794400000000003
0.0224609
0.010498
0.000549316
-0.000915527
0.00683594
0.015930200000000002
0.023315400000000003
0.0255127
0.024353
0.0216064
0.0216064
0.0195312
0.00354004
-0.0125732
-0.0259399
-0.030212400000000007
-0.0203247
-0.00561523
0.0078125
0.0178833
0.0217896
0.0193481
0.0147095
0.011657700000000002
0.0119629
0.015930200000000002
0.0264282
0.0349731
0.0369263
0.0264893
0.00335693
-0.0198975
-0.0250854
-0.0118408
0.0100708
0.030212400000000007
0.0367432
0.0275269
0.00561523
-0.015197799999999997
-0.0178223
-0.0022583000000000004
0.0186157
0.0328979
0.0357056
0.031555200000000005
0.024231
0.0181274
0.016967799999999998
0.020813
0.025817900000000005
0.0240479
0.0161743
0.00366211
-0.00622559
-0.00720215
0.00341797
0.0193481
0.0350952
0.0390625
0.0309448
0.0175171
0.00494385
0.00872803
0.0222778
0.0353394
0.036254900000000014
0.0223389
0.0105591
0.00964355
0.016967799999999998
0.0236816
0.0206299
0.0120239
0.00866699
0.00909424
0.0113525
0.0181885
0.0294189
0.0391235
0.0397339
0.0292969
0.0203857
0.0197754
0.0232544
0.0320435
0.038147
0.0371094
0.0338135
0.0291138
0.023315400000000003
0.0144653
0.00537109
0.000915527
0.00488281
0.0136719
0.0180054
0.016113299999999997
0.0125122
0.0101929
0.0134277
0.0249023
0.0397339
0.0531006
0.0598145
0.0548706
0.0391235
0.031005900000000006
0.0334473
0.041992199999999986
0.0523682
0.056457500000000015
0.0501709
0.0408325
0.0368042
0.0402222
0.0425415
0.0396729
0.0272217
0.0144043
0.0119019
0.0136719
0.0182495
0.0223389
0.014526400000000004
-0.000305176
-0.015197799999999997
-0.0236816
-0.0238037
-0.0175171
-0.0120239
-0.00842285
-0.00244141
0.00109863
-0.00323486
-0.010437
-0.0140381
-0.016479499999999998
-0.016601599999999998
-0.0108643
0.000244141
0.013855
0.010498
-0.0102539
-0.0379639
-0.0558472
-0.0504761
-0.020752
0.0306396
0.112488
0.242981
0.4386600000000001
0.671692
0.87677
0.966187
0.887451
0.663269
0.373535
0.113281
-0.0524902
-0.110596
-0.0873413
-0.0259399
0.0333862
0.07250980000000001
0.0913086
0.0861206
0.06469730000000001
0.0405884
0.0227051
0.016052200000000003
0.0239258
0.0392456
0.0498657
0.0540771
0.0531006
0.052673300000000006
0.053894
0.052124
0.0426636
0.0236206
0.00524902
0.00177002
0.015930200000000002
0.031616200000000004
0.0407715
0.0391846
0.0344849
0.031860400000000004
0.0410156
0.0513916
0.0565186
0.0525513
0.0380249
0.0250854
0.029541
0.0454712
0.0618286
0.0692139
0.0647583
0.0476074
0.0321655
0.0334473
0.046936
0.0617065
0.0723877
0.0772095
0.0812988
0.08374019999999999
0.0862427
0.0892944
0.0957031
0.105225
0.110901
0.119019
0.134949
0.152649
0.167847
0.17193599999999998
0.175293
0.18103
0.190552
0.204285
0.21344
0.222351
0.233765
0.249634
0.266968
0.277466
0.277954
0.266113
0.243042
0.222534
0.208679
0.200806
0.196472
0.188416
0.16735799999999998
0.13378900000000002
0.101013
0.0776367
0.0643921
0.0581665
0.0603638
0.06817630000000001
0.0697632
0.0609131
0.0454712
0.0274658
0.015319799999999996
0.0180054
0.022949200000000003
0.0244141
0.0253296
0.0237427
0.0196533
0.0183105
0.0221558
0.0294189
0.0337524
0.0350342
0.0375977
0.0367432
0.0354004
0.032531700000000004
0.034362800000000006
0.045043900000000005
0.0540771
0.057678199999999985
0.051147500000000005
0.033508300000000005
0.0167847
0.0150757
0.0289307
0.0504761
0.0633545
0.062561
0.0500488
0.0368652
0.0319824
0.0298462
0.031555200000000005
0.0358887
0.0391235
0.0445557
0.052795400000000006
0.0614014
0.06323240000000001
0.0542603
0.034118699999999995
0.00952148
-0.0101929
-0.0230713
-0.022949200000000003
-0.00488281
0.016357399999999998
0.0301514
0.032775900000000004
0.0197754
0.00402832
-0.00622559
-0.0134888
-0.011657700000000002
0.00170898
0.013855
0.0211792
0.0205688
0.0120239
0.0022583000000000004
-0.00238037
-0.00482178
-0.00378418
-0.00720215
-0.016235399999999997
-0.022583
-0.0186768
-0.00317383
0.0181274
0.0400391
0.0497437
0.0447388
0.0280762
-0.000976562
-0.03125
-0.0467529
-0.041626
-0.0258789
-0.00726318
0.00732422
0.005737300000000001
-0.0105591
-0.025817900000000005
-0.0354004
-0.0384521
-0.036438
-0.029480000000000006
-0.0214233
-0.0144653
-0.00756836
0.00579834
0.0221558
0.0320435
0.0192261
-0.00976562
-0.0385132
-0.0505981
-0.041748
-0.0212402
-0.00842285
-0.00830078
-0.0181885
-0.0280762
-0.035949699999999994
-0.039978
-0.039917
-0.0367432
-0.0305786
-0.0192261
-0.00634766
-0.00213623
-0.00744629
-0.0158691
-0.0288086
-0.0396729
-0.0422974
-0.0360718
-0.0249634
-0.016967799999999998
-0.014526400000000004
-0.012756299999999998
-0.010498
-0.0102539
-0.015197799999999997
-0.022644
-0.032531700000000004
-0.0454102
-0.0477295
-0.0386963
-0.0210571
-0.00476074
-0.0043335
-0.015686000000000002
-0.027648900000000004
-0.032714799999999995
-0.030761700000000006
-0.028442400000000007
-0.0273438
-0.026062
-0.0218506
-0.0108032
0.00109863
0.00756836
0.00140381
-0.0118408
-0.028442400000000007
-0.0429688
-0.05242919999999999
-0.053710900000000006
-0.0449219
-0.0286865
-0.0126953
-0.000244141
0.00305176
-0.00213623
-0.0133667
-0.0280151
-0.0389404
-0.040405300000000005
-0.033508300000000005
-0.0270386
-0.0230103
-0.0144653
0.00012207
0.016052200000000003
0.0266113
0.020813
-0.0043335
-0.0375366
-0.0623779
-0.0679932
-0.0553589
-0.0400391
-0.025634800000000003
-0.00701904
0.0109253
0.0228882
0.0169067
-0.00378418
-0.027771
-0.0396729
-0.0380249
-0.0297241
-0.0182495
-0.00463867
0.00823975
0.0200806
0.0253906
0.0178223
-0.00494385
-0.0280762
-0.036377
-0.0281372
-0.00549316
0.019165
0.0387573
0.0443726
0.0353394
0.0251465
0.0175171
0.0115967
0.00476074
