CH3
0.0838623
0.0861816
0.0813599
0.0749512
0.06933589999999999
0.06835939999999999
0.07135010000000001
0.0775757
0.08636469999999999
0.08636469999999999
0.07733150000000001
0.064209
0.050293
0.041687
0.0360718
0.0320435
0.028869599999999995
0.031616200000000004
0.0390625
0.044006300000000005
0.0455322
0.0424805
0.0336914
0.0256958
0.0248413
0.0307007
0.0408325
0.0462036
0.0495605
0.0528564
0.053955099999999985
0.0559692
0.0625
0.07519529999999999
0.0962524
0.114868
0.122559
0.123291
0.118591
0.119751
0.129456
0.142578
0.14514200000000002
0.131104
0.109497
0.0957031
0.09375
0.101074
0.105652
0.101196
0.0928345
0.085083
0.08026119999999999
0.0787354
0.0792847
0.0814819
0.0830688
0.0857544
0.0898438
0.0921631
0.0974731
0.102112
0.105591
0.101501
0.08697510000000001
0.0686035
0.0571899
0.0594482
0.07312010000000001
0.0860596
0.0946045
0.0975342
0.0992432
0.104919
0.10791
0.101135
0.08312989999999999
0.0568237
0.0423584
0.048645
0.0656738
0.0824585
0.098999
0.107788
0.104126
0.0944214
0.0788574
0.0618286
0.0498657
0.0467529
0.049255400000000005
0.0574341
0.06726069999999999
0.07299800000000001
0.06933589999999999
0.062439
0.0579834
0.0493164
0.041870099999999986
0.0366211
0.038269
0.0408325
0.038147
0.032653800000000004
0.0257568
0.0188599
0.0147095
0.0150757
0.0247192
0.041320800000000005
0.054992700000000005
0.0584106
0.045898400000000006
0.022644
0.003479
-0.00280762
0.00317383
0.0147095
0.022949200000000003
0.0272827
0.0319824
0.0360107
0.033630400000000005
0.0203247
0.00274658
-0.00933838
-0.00970459
-0.00115967
0.0149536
0.0319214
0.0370483
0.0301514
0.0157471
-0.00189209
-0.0125122
-0.0126343
-0.00164795
0.013305700000000002
0.0283203
0.0363159
0.031616200000000004
0.0203857
0.00653076
-0.00860596
-0.016845699999999998
-0.0128174
-0.00109863
0.0108032
0.0150757
0.012207
0.0088501
0.00854492
0.00787354
0.0113525
0.0155029
0.015686000000000002
0.0137329
0.00689697
-0.000488281
-0.00317383
-0.003479
-0.00140381
0.00177002
0.00616455
0.00732422
0.00708008
0.00445557
-0.00256348
-0.0139771
-0.024292
-0.0274658
-0.016235399999999997
0.00238037
0.015930200000000002
0.0203247
0.0108032
-0.00610352
-0.0223389
-0.0301514
-0.0292358
-0.024108900000000003
-0.017028799999999997
-0.00805664
0.00415039
0.0181885
0.0230103
0.0159912
-6.10352e-05
-0.0195312
-0.0348511
-0.0408936
-0.0363159
-0.0206299
0.0020752
0.0179443
0.019104
0.00695801
-0.0148315
-0.036132800000000014
-0.041320800000000005
-0.0256958
-0.00183105
0.0109253
0.0137329
0.00506592
-0.00714111
-0.0150146
-0.0143433
-0.0100708
-0.00860596
-0.012756299999999998
-0.0132446
-0.0124512
-0.0135498
-0.0165405
-0.0192871
-0.0232544
-0.0202637
-0.012756299999999998
-0.0125732
-0.015930200000000002
-0.0203857
-0.022583
-0.0239868
-0.0217896
-0.0187378
-0.0148315
-0.0067749
0.0043335
0.0125122
0.00543213
-0.0126953
-0.0319824
-0.0389404
-0.0275269
-0.0115356
-0.00341797
-0.00732422
-0.020874
-0.033508300000000005
-0.0353394
-0.0303955
-0.0232544
-0.0210571
-0.024353
-0.0241699
-0.0209351
-0.019104
-0.0219727
-0.0261841
-0.0261841
-0.0235596
-0.0203857
-0.0157471
-0.0112305
-0.015930200000000002
-0.0262451
-0.034057599999999986
-0.033630400000000005
-0.0234985
-0.014526400000000004
-0.0150757
-0.02771
-0.0397949
-0.0423584
-0.0371704
-0.0316772
-0.0289307
-0.0273438
-0.0251465
-0.0236206
-0.0232544
-0.0286865
-0.0357056
-0.0353394
-0.0238037
-0.0145874
-0.0177002
-0.025817900000000005
-0.0388794
-0.0483398
-0.0533447
-0.0534058
-0.0534058
-0.052917499999999985
-0.0534058
-0.0575562
-0.0628052
-0.0703125
-0.0794067
-0.08782960000000001
-0.0948486
-0.0974731
-0.0969849
-0.0933228
-0.0861206
-0.0784302
-0.0723877
-0.0679932
-0.06213380000000001
-0.0542603
-0.0499268
-0.0580444
-0.07073969999999999
-0.0776367
-0.06951900000000001
-0.0455933
-0.0202637
-0.017394999999999997
-0.0350952
-0.06591799999999999
-0.08807369999999999
-0.0855713
-0.06817630000000001
-0.0571289
-0.0618286
-0.0803833
-0.108032
-0.129639
-0.130249
-0.0790405
0.032531700000000004
0.180298
0.325806
0.405029
0.386047
0.279358
0.132141
0.00488281
-0.06329349999999999
-0.0708008
-0.038208
-0.00549316
0.00567627
-0.00268555
-0.028869599999999995
-0.0563354
-0.0653687
-0.0582886
-0.0435181
-0.0286255
-0.022399900000000004
-0.0253906
-0.033081099999999995
-0.0418091
-0.0465088
-0.0470581
-0.0474243
-0.0505981
-0.0507812
-0.0467529
-0.0424194
-0.0345459
-0.0281372
-0.0286865
-0.0351562
-0.0465088
-0.0596924
-0.06414790000000001
-0.0638428
-0.065979
-0.06658939999999999
-0.0622559
-0.056457500000000015
-0.0542603
-0.057678199999999985
-0.06604
-0.074646
-0.07482910000000001
-0.0697632
-0.0652466
-0.0618286
-0.0608521
-0.0651245
-0.06793210000000001
-0.0708618
-0.07708739999999999
-0.0933838
-0.104431
-0.104187
-0.0957642
-0.0842285
-0.074585
-0.0690918
-0.0671997
-0.06964110000000001
-0.07470700000000001
-0.07971189999999999
-0.0787354
-0.0703125
-0.055481
-0.0363159
-0.018981900000000003
-0.00537109
0.00317383
0.00543213
0.0032959000000000005
-0.000610352
-0.00500488
-0.0032959000000000005
0.00238037
0.0100098
0.0123291
0.00463867
-0.00897217
-0.022522
-0.0317383
-0.031555200000000005
-0.0223389
-0.0201416
-0.0244141
-0.0308228
-0.0350342
-0.0332642
-0.026916500000000003
-0.0235596
-0.029785200000000005
-0.0368652
-0.0427246
-0.0493774
-0.0435181
-0.0307007
-0.0227051
-0.022949200000000003
-0.025817900000000005
-0.0308228
-0.036254900000000014
-0.0395508
-0.0413818
-0.0396729
-0.0366821
-0.0355835
-0.0354004
-0.0333862
-0.0290527
-0.0285034
-0.033508300000000005
-0.0386963
-0.0397339
-0.0320435
-0.0217285
-0.016113299999999997
-0.015197799999999997
-0.0212402
-0.0324097
-0.0405273
-0.044006300000000005
-0.0428467
-0.0375977
-0.0256958
-0.018066400000000003
-0.0148315
-0.018981900000000003
-0.0275879
-0.0353394
-0.0432739
-0.0510864
-0.053894
-0.0456543
-0.035522500000000005
-0.0298462
-0.0355835
-0.049255400000000005
-0.0612793
-0.0656738
-0.0611572
-0.0533447
-0.0495605
-0.0515137
-0.0562134
-0.0588379
-0.059021
-0.0603027
-0.0617065
-0.0507202
-0.0411987
-0.0425415
-0.050354
-0.0695801
-0.0855713
-0.081665
-0.06872560000000001
-0.0561523
-0.048645
-0.044006300000000005
-0.0432739
-0.0410767
-0.041320800000000005
-0.045166000000000005
-0.0536499
-0.06292719999999999
-0.0643311
-0.0578613
-0.0453491
-0.0289917
-0.0206299
-0.022644
-0.036132800000000014
-0.0584717
-0.0738525
-0.0734253
-0.0658569
-0.0563354
-0.0453491
-0.0393677
-0.041870099999999986
-0.0515747
-0.062439
-0.0643921
-0.0563354
-0.048217800000000005
-0.0462646
-0.046814
-0.0448608
-0.0387573
-0.0334473
-0.0348511
-0.041442900000000005
-0.05242919999999999
-0.0587769
-0.0532837
-0.0431519
-0.036438
-0.0393677
-0.0518188
-0.0621948
-0.06414790000000001
-0.057373
-0.0477295
-0.038085900000000006
-0.034668
-0.0379639
-0.0447388
-0.0507812
-0.0544434
-0.0525513
-0.0473022
-0.0402832
-0.0328979
-0.0317383
-0.0384521
-0.0453491
-0.0430908
-0.035949699999999994
-0.032714799999999995
-0.031860400000000004
-0.0393066
-0.0523682
-0.0628052
-0.0634766
-0.0584717
-0.0477905
-0.0343018
-0.0289307
-0.031860400000000004
-0.0385742
-0.038147
-0.0357056
-0.0349121
-0.039917
-0.0560303
-0.0675659
-0.0593872
-0.036987300000000015
-0.019043
-0.0147095
-0.022033700000000003
-0.030334500000000007
-0.032775900000000004
-0.0366211
-0.0387573
-0.0427246
-0.0441284
-0.0393066
-0.031189
-0.0270996
-0.0296021
-0.0375977
-0.0413818
-0.036987300000000015
-0.0352783
-0.0343018
-0.0328979
-0.0319824
-0.0314941
-0.0308228
-0.0299683
-0.024108900000000003
-0.0149536
-0.00671387
-0.00872803
-0.0167847
-0.0202026
-0.0199585
-0.0212402
-0.0253296
-0.035522500000000005
-0.0455933
-0.0529785
-0.0473633
-0.0360718
-0.0249023
-0.015441899999999996
-0.00915527
-0.00939941
-0.0113525
-0.0158691
-0.021667500000000003
-0.018981900000000003
-0.0133667
-0.010437
-0.0120239
-0.019104
-0.0291138
-0.0368652
-0.0397339
-0.0352783
-0.0239258
-0.015319799999999996
-0.012207
-0.00720215
0.00311279
0.0130615
0.0175171
0.0100708
-0.00341797
-0.017761199999999998
-0.0238037
-0.0245361
-0.0222778
-0.0201416
-0.020752
-0.0206909
-0.0240479
-0.032531700000000004
-0.0443726
-0.0523071
-0.0517578
-0.0443115
-0.0418091
-0.048584
-0.05780030000000001
-0.0639038
-0.06518550000000001
-0.0591431
-0.0491943
-0.0370483
-0.0259399
-0.0223389
-0.0262451
-0.032226599999999994
-0.0391846
-0.0441284
-0.0448608
-0.0380249
-0.027832
-0.0221558
-0.0195312
-0.022522
-0.0259399
-0.026367200000000004
-0.0283813
-0.0248413
-0.0165405
-0.0124512
-0.016723599999999998
-0.0294189
-0.059021
-0.0963745
-0.125
-0.13336199999999998
-0.101013
-0.00939941
0.135376
0.299072
0.414917
0.44104
0.355591
0.202942
0.0556641
-0.0427856
-0.07336430000000001
-0.048217800000000005
-0.00622559
0.026062
0.032958999999999995
0.0182495
-0.000854492
-0.00915527
-0.00799561
-0.003479
-0.00231934
-0.00512695
-0.00531006
-0.00830078
-0.00939941
0.000915527
0.010376
0.0110474
0.00726318
-0.00567627
-0.0196533
-0.0257568
-0.0206299
-0.00976562
-0.00372314
-0.00292969
-0.00830078
-0.0177002
-0.026367200000000004
-0.0332031
-0.0280762
-0.0183716
-0.0101318
-0.0148315
-0.03125
-0.0474854
-0.052124
-0.0459595
-0.0372925
-0.0288086
-0.0219727
-0.0188599
-0.0200195
-0.0286865
-0.0425415
-0.0568237
-0.06665039999999997
-0.06811519999999999
-0.0651245
-0.06292719999999999
-0.06152340000000001
-0.0598145
-0.053710900000000006
-0.043335000000000005
-0.0375977
-0.0438843
-0.0581055
-0.06726069999999999
-0.0700073
-0.0621948
-0.044799800000000015
-0.0228271
0.00585938
0.0279541
0.038269
0.034668
0.0167847
0.00109863
0.0
0.0114136
0.0234375
0.031189
0.0369263
0.040405300000000005
0.039856
0.03302
0.019104
0.00769043
0.00305176
-0.000793457
-0.00292969
-0.00134277
0.00787354
0.0266113
0.0461426
0.0473633
0.0336914
0.00628662
-0.021667500000000003
-0.031616200000000004
-0.0186157
-0.0007324219999999999
0.0169067
0.0287476
0.0266724
0.019165
0.00750732
-0.00292969
-0.00421143
-0.00189209
0.000610352
0.00878906
0.0247192
0.039856
0.041992199999999986
0.0311279
0.0114746
-0.00732422
-0.0133667
-0.00811768
0.00720215
0.025634800000000003
0.038085900000000006
0.0376587
0.028198200000000007
0.0128784
-0.000671387
-0.00952148
-0.012207
-0.00244141
0.010437
0.0183105
0.0202637
0.0192871
0.0136108
0.00610352
-0.00292969
-0.00964355
-0.014221200000000003
-0.0101929
0.00512695
0.016723599999999998
0.0186157
0.012146
-0.00946045
-0.031066900000000005
-0.0388794
-0.0348511
-0.021667500000000003
-0.00482178
0.00592041
0.00439453
-0.00366211
-0.00982666
-0.00830078
-0.00164795
0.00256348
6.10352e-05
-0.00488281
-0.00958252
-0.013183600000000002
-0.014221200000000003
-0.010498
-0.00592041
-0.00830078
-0.012207
-0.013916
-0.00860596
0.00341797
0.0101929
0.012146
0.00665283
-0.003479
-0.006591800000000001
-0.000488281
0.0112915
0.0188599
0.014099100000000003
-0.00280762
-0.0197144
-0.0275879
-0.0241699
-0.00952148
0.00927734
0.0216064
0.0240479
0.0171509
0.00671387
-0.000366211
0.00262451
0.00946045
0.0164185
0.017334
0.0103149
0.00537109
0.00830078
0.0150757
0.0210571
0.0211182
0.0139771
0.0123901
0.0159912
0.015686000000000002
0.0175171
0.0194702
0.0205688
0.022522
0.0233765
0.022644
0.0232544
0.0266113
0.0287476
0.027648900000000004
0.0262451
0.0192871
0.00860596
0.00488281
0.00714111
0.014099100000000003
0.0230103
0.035461400000000004
0.0476074
0.0512695
0.046875
0.0379028
0.0320435
0.03125
0.0305176
0.0266113
0.0153809
0.00500488
0.00396729
0.0136719
0.0240479
0.0289917
0.0264893
0.0235596
0.0287476
0.038269
0.0437622
0.0403442
0.034362800000000006
0.0304565
0.0271606
0.0246582
0.0245361
0.0267334
0.032531700000000004
0.036499
0.0420532
0.049987800000000006
0.0521851
0.0427246
0.0287476
0.017028799999999997
0.0140381
0.0197144
0.0337524
0.0444946
0.041626
0.029541
0.012207
-0.00244141
-0.00610352
-0.00463867
-0.00140381
-0.00152588
-0.000976562
0.0020752
0.00463867
0.00457764
0.00579834
0.00488281
0.00134277
0.00640869
0.0106201
0.0196533
0.0304565
0.0372925
0.0368042
0.0311279
0.0279541
0.0288086
0.031555200000000005
0.0358887
0.0360107
0.0360718
0.040405300000000005
0.0460205
0.0521851
0.0485229
0.0384521
0.0247803
0.00628662
-0.00897217
-0.0139771
-0.0233765
-0.0383301
-0.0493164
-0.0299072
0.053772
0.199524
0.367065
0.494934
0.536316
0.472839
0.337708
0.185547
0.0717163
0.0192871
0.0132446
0.0343018
0.057678199999999985
0.07312010000000001
0.0792847
0.07543949999999999
0.0691528
0.0645752
0.0612183
0.0614624
0.0633545
0.0640259
0.061767599999999985
0.0523071
0.043335000000000005
0.0379028
0.0352783
0.0422363
0.0542603
0.0664673
0.0753784
0.072876
0.06323240000000001
0.0500488
0.035949699999999994
0.0250244
0.0250244
0.035949699999999994
0.050415
0.0559692
0.0477295
0.0354004
0.020813
0.00836182
0.000976562
-0.00305176
-0.00292969
0.00305176
0.00604248
0.00323486
0.000488281
0.00164795
0.00616455
0.0137939
0.0181885
0.0136108
0.00866699
0.000488281
-0.00683594
-0.0126953
-0.0249634
-0.0351562
-0.0379028
-0.0314941
-0.0238037
-0.0205078
-0.0185547
-0.015930200000000002
-0.016723599999999998
-0.012756299999999998
0.000488281
0.0219727
0.0430298
0.0561523
0.059509300000000015
0.0609131
0.0654907
0.07269289999999999
0.0784302
0.08026119999999999
0.0770264
0.0723877
0.0714111
0.0721436
0.0710449
0.069397
0.0667725
0.0657349
0.067749
0.06793210000000001
0.0623169
0.0561523
0.05432130000000001
0.0570068
0.0582275
0.0574951
0.0559692
0.0472412
0.0393066
0.0367432
0.037231400000000005
0.0424194
0.0471191
0.0487671
0.0473022
0.0436401
0.0404663
0.0406494
0.0465698
0.0548706
0.056640599999999985
0.055542
0.050354
0.0477295
0.0452881
0.0421143
0.0385742
0.0368042
0.0388184
0.043457
0.0499268
0.057251
0.0596313
0.0545654
0.0499268
0.042175300000000006
0.0355835
0.0324707
0.0350342
0.041687
0.0449219
0.045105
0.0351562
0.0227051
0.015808100000000002
0.011779799999999998
0.0114136
0.0192871
0.0255127
0.0258789
0.0247192
0.016967799999999998
0.0110474
0.00762939
0.00402832
0.00494385
0.0110474
0.0130615
0.00805664
0.00183105
0.000183105
0.00292969
0.00292969
-0.00115967
-0.00653076
-0.010376
-0.011657700000000002
-0.00756836
-0.00616455
-0.00811768
-0.00823975
-0.00396729
0.00390625
0.0131226
0.0098877
-0.0067749
-0.025634800000000003
-0.0386963
-0.0409546
-0.033081099999999995
-0.0181274
-0.00457764
0.00354004
0.00598145
-0.000671387
-0.0119629
-0.0250854
-0.0366821
-0.0422974
-0.0371094
-0.0244751
-0.0107422
-0.00115967
0.00189209
-0.000366211
-0.0109253
-0.024292
-0.036254900000000014
-0.0389404
-0.0357056
-0.0350342
-0.0324097
-0.0333862
-0.0379028
-0.0415649
-0.041320800000000005
-0.0390625
-0.0366211
-0.0321045
-0.0273438
-0.0202637
-0.0142822
-0.013855
-0.0198364
-0.0290527
-0.0396118
-0.0444336
-0.0405884
-0.0297241
-0.0192871
-0.0192871
-0.030761700000000006
-0.0477905
-0.059021
-0.0592651
-0.0542603
-0.043457
-0.0325928
-0.0258789
-0.0240479
-0.024108900000000003
-0.0224609
-0.022644
-0.0265503
-0.0305786
-0.0367432
-0.0448608
-0.0510864
-0.046814
-0.0372925
-0.0290527
-0.0250854
-0.0285034
-0.0321045
-0.0322876
-0.0323486
-0.036438
-0.0402222
-0.0396118
-0.034668
-0.033508300000000005
-0.036254900000000014
-0.041626
-0.0464478
-0.045166000000000005
-0.038085900000000006
-0.0285034
-0.0235596
-0.031189
-0.041748
-0.0445557
-0.041870099999999986
-0.0356445
-0.0323486
-0.034423800000000004
-0.0426025
-0.0497437
-0.0512085
-0.0516357
-0.0505981
-0.0490723
-0.0456543
-0.0349121
-0.0186768
-0.000915527
0.00775146
-0.00146484
-0.0222168
-0.0432129
-0.0518188
-0.0402832
-0.0213013
-0.0147095
-0.0280762
-0.0556641
-0.0787354
-0.0842285
-0.072937
-0.0594482
-0.052673300000000006
-0.0557251
-0.0700073
-0.08807369999999999
-0.09729
-0.0987549
-0.09198
-0.07391360000000001
-0.0585327
-0.051147500000000005
-0.0515137
-0.0562134
-0.0608521
-0.0533447
-0.0432739
-0.039978
-0.043396
-0.0494995
-0.0600586
-0.0648193
-0.0603638
-0.049804699999999986
-0.0424194
-0.0422974
-0.0454712
-0.0445557
-0.0420532
-0.0431519
-0.0467529
-0.0506592
-0.05780030000000001
-0.0710449
-0.0927124
-0.106628
-0.0768433
0.0195923
0.173645
0.33129899999999995
0.421326
0.402405
0.28015100000000004
0.117981
-0.013855
-0.0858154
-0.0917358
-0.05242919999999999
-0.00994873
0.014221200000000003
0.0115967
-0.017028799999999997
-0.0475464
-0.0610352
-0.0557861
-0.0421143
-0.0272827
-0.023315400000000003
-0.0336914
-0.0551758
-0.0731812
-0.0819702
-0.0804443
-0.06689450000000001
-0.0501099
-0.0368042
-0.034362800000000006
-0.0443115
-0.0570068
-0.0662842
-0.07269289999999999
-0.0760498
-0.0768433
-0.08007810000000001
-0.08380130000000001
-0.0856934
-0.0813599
-0.0710449
-0.0629883
-0.0593262
-0.06463619999999999
-0.07507319999999999
-0.08691410000000001
-0.0964966
-0.100891
-0.101624
-0.09790039999999997
-0.08789060000000001
-0.0819092
-0.0812378
-0.0844116
-0.0957031
-0.11303699999999997
-0.123596
-0.120117
-0.11322
-0.105896
-0.0993042
-0.0968018
-0.0960083
-0.09552
-0.09790039999999997
-0.101318
-0.1073
-0.110657
-0.105225
-0.0854492
-0.0563354
-0.034179699999999986
-0.0333862
-0.050293
-0.07128910000000001
-0.07910160000000001
-0.06964110000000001
-0.0519409
-0.034057599999999986
-0.0195312
-0.015319799999999996
-0.0184937
-0.0252075
-0.0390015
-0.056762699999999985
-0.0668335
-0.0669556
-0.0612183
-0.0552368
-0.055481
-0.0625
-0.0755005
-0.0877686
-0.0906982
-0.08343510000000001
-0.07623289999999999
-0.0687866
-0.0599976
-0.0556641
-0.0524902
-0.0580444
-0.07714839999999999
-0.0985107
-0.105896
-0.101929
-0.0929565
-0.08355710000000001
-0.07189939999999999
-0.0582275
-0.0530396
-0.057312
-0.0703125
-0.0924072
-0.106873
-0.106018
-0.0980835
-0.0858154
-0.07855219999999999
-0.07635499999999999
-0.072937
-0.0697021
-0.069458
-0.0772705
-0.0858154
-0.0928345
-0.0949097
-0.090271
-0.086853
-0.086792
-0.08551030000000001
-0.0898438
-0.0945435
-0.0976562
-0.102417
-0.103088
-0.0961914
-0.0864258
-0.08404539999999999
-0.0915527
-0.106567
-0.11792
-0.117432
-0.105408
-0.0903931
-0.08007810000000001
-0.08178710000000003
-0.102112
-0.12731900000000002
-0.143738
-0.14032
-0.124573
-0.109497
-0.10376
-0.107239
-0.117126
-0.126038
-0.128601
-0.124878
-0.122009
-0.11853
-0.112061
-0.104248
-0.097229
-0.0945435
-0.100769
-0.112427
-0.124146
-0.127441
-0.119812
-0.106262
-0.0964966
-0.0978394
-0.109192
-0.123657
-0.126282
-0.120117
-0.116333
-0.110291
-0.108826
-0.112366
-0.118286
-0.124084
-0.128418
-0.12731900000000002
-0.118896
-0.104736
-0.0953979
-0.0946045
-0.103516
-0.112976
-0.112061
-0.102234
-0.0955811
-0.0983887
-0.107178
-0.116577
-0.120911
-0.117676
-0.110413
-0.105774
-0.105042
-0.112488
-0.120056
-0.116211
-0.107788
-0.0980225
-0.0912476
-0.0864258
-0.08355710000000001
-0.0842285
-0.0879517
-0.0961914
-0.10675
-0.111511
-0.104919
-0.0953979
-0.0933228
-0.0977783
-0.109009
-0.117859
-0.115051
-0.108459
-0.104309
-0.102051
-0.0990601
-0.097229
-0.09375
-0.08288569999999999
-0.07592769999999999
-0.0775757
-0.0886841
-0.102173
-0.10614
-0.102173
-0.0979614
-0.0964966
-0.102051
-0.107483
-0.105164
-0.0979614
-0.08636469999999999
-0.07598880000000001
-0.07543949999999999
-0.085022
-0.0950928
-0.100708
-0.0986328
-0.0929565
-0.0872803
-0.08251950000000001
-0.0829468
-0.0897827
-0.0946655
-0.095459
-0.0933228
-0.0877686
-0.08001710000000001
-0.0758667
-0.0756836
-0.0761108
-0.0786743
-0.0820923
-0.08142089999999999
-0.08032230000000001
-0.0819702
-0.0828247
-0.0848389
-0.08923339999999999
-0.0882568
-0.08374019999999999
-0.07916260000000001
-0.0792847
-0.0847168
-0.0881958
-0.0876465
-0.0819702
-0.07189939999999999
-0.0626831
-0.0559692
-0.060729999999999985
-0.0715942
-0.0758057
-0.0689087
-0.0610352
-0.0594482
-0.06781010000000001
-0.0821533
-0.0881958
-0.0864868
-0.0839233
-0.0808716
-0.076416
-0.07452389999999999
-0.0741577
-0.0717163
-0.06933589999999999
-0.06616210000000003
-0.062561
-0.06152340000000001
-0.06024169999999999
-0.0565796
-0.054992700000000005
-0.0516357
-0.0535889
-0.0668335
-0.0804443
-0.0894775
-0.08673099999999999
-0.0784302
-0.0706177
-0.06665039999999997
-0.0662842
-0.06658939999999999
-0.06671139999999999
-0.0634766
-0.05688480000000001
-0.0502319
-0.052673300000000006
-0.06213380000000001
-0.069397
-0.06671139999999999
-0.0595703
-0.051147500000000005
-0.049255400000000005
-0.0552979
-0.0622559
-0.06750489999999999
-0.0690308
-0.06622310000000001
-0.0610962
-0.056640599999999985
-0.0471802
-0.0413818
-0.0427246
-0.049133300000000005
-0.0581665
-0.0631714
-0.06048580000000001
-0.059509300000000015
-0.0643921
-0.0701294
-0.07244869999999999
-0.06750489999999999
-0.0577393
-0.0508423
-0.0512695
-0.0582275
-0.0645752
-0.06213380000000001
-0.05242919999999999
-0.0427246
-0.0403442
-0.041442900000000005
-0.0441895
-0.0496216
-0.0556641
-0.0626221
-0.06671139999999999
-0.0613403
-0.052612300000000015
-0.0432129
-0.035522500000000005
-0.0376587
-0.051147500000000005
-0.0682373
-0.0802002
-0.08380130000000001
-0.078064
-0.0698242
-0.06427000000000001
-0.0653687
-0.0710449
-0.083313
-0.0965576
-0.10791
-0.115234
-0.121399
-0.120667
-0.107422
-0.08862300000000001
-0.0726318
-0.0601807
-0.0571289
-0.0628052
-0.0638428
-0.0592651
-0.056457500000000015
-0.0601196
-0.0714111
-0.08325199999999999
-0.0841064
-0.0690918
-0.0510254
-0.0408936
-0.043335000000000005
-0.0518188
-0.0686035
-0.0856323
-0.0948486
-0.0941162
-0.0914917
-0.0941162
-0.106873
-0.124146
-0.115967
-0.056640599999999985
0.06793210000000001
0.231018
0.361511
0.401062
0.329285
0.18103
0.0283813
-0.0701904
-0.0960083
-0.0750122
-0.0422974
-0.0253296
-0.028442400000000007
-0.0372925
-0.0380249
-0.0300903
-0.0215454
-0.0115967
-0.00604248
-0.0130615
-0.0292358
-0.0496216
-0.0635986
-0.06152340000000001
-0.0421143
-0.0193481
-0.011779799999999998
-0.022583
-0.0429688
-0.0598145
-0.0639648
-0.0596313
-0.05505369999999999
-0.0426636
-0.0245972
-0.0111084
-0.0141602
-0.033630400000000005
-0.065979
-0.08374019999999999
-0.085022
-0.0772095
-0.06665039999999997
-0.0583496
-0.046875
-0.0344849
-0.028198200000000007
-0.0355835
-0.0620117
-0.0975342
-0.120056
-0.11792
-0.102478
-0.08813480000000001
-0.0769653
-0.06463619999999999
-0.0510864
-0.0351562
-0.0252686
-0.034729
-0.0606689
-0.0941772
-0.12384
-0.13378900000000002
-0.121948
-0.100098
-0.0755005
-0.0491943
-0.0292969
-0.0213013
-0.0288086
-0.045166000000000005
-0.0552979
-0.0487061
-0.0299683
-0.00756836
0.00878906
0.016052200000000003
0.0192871
0.036132800000000014
0.0623779
0.0753784
0.0635376
0.0209351
-0.0308838
-0.0657349
-0.0691528
-0.049987800000000006
-0.0230713
-0.00280762
0.00439453
-0.00518799
-0.0197144
-0.0286255
-0.0289917
-0.024231
-0.017028799999999997
-0.011718799999999998
-0.012146
-0.016723599999999998
-0.0204468
-0.00939941
0.0135498
0.0371704
0.044799800000000015
0.0339355
0.00372314
-0.0308838
-0.0510254
-0.05688480000000001
-0.0480957
-0.0360107
-0.0241699
-0.016662599999999996
-0.0130005
-0.0098877
-0.00750732
-0.00616455
-0.00323486
0.00976562
0.0244141
0.0320435
0.029541
0.0122681
-0.0114746
-0.022522
-0.0183716
-0.00762939
0.000366211
0.00372314
0.00646973
0.00494385
-0.00531006
-0.0189209
-0.0290527
-0.0338135
-0.0301514
-0.019165
-0.00323486
0.0088501
0.012146
0.000488281
-0.0186768
-0.0339355
-0.0360718
-0.0307007
-0.0233765
-0.017761199999999998
-0.018066400000000003
-0.0204468
-0.0236816
-0.023864700000000003
-0.0247192
-0.0239868
-0.0219116
-0.0252686
-0.0235596
-0.0134277
-0.00622559
0.000854492
-0.00354004
-0.020874
-0.037231400000000005
-0.0403442
-0.032775900000000004
-0.0233765
-0.0184937
-0.0144653
-0.00848389
-0.00378418
-0.00311279
-0.00634766
-0.0109863
-0.018981900000000003
-0.028442400000000007
-0.0377808
-0.0384521
-0.0213013
0.00585938
0.029480000000000006
0.0402832
0.0299072
0.00274658
-0.026123
-0.0437012
-0.0444946
-0.0291748
-0.006591800000000001
0.0103149
0.0178833
0.0112915
-0.00219727
-0.0107422
-0.0107422
-0.00756836
-0.00769043
-0.00628662
0.00793457
0.0271606
0.0427246
0.0452881
0.029785200000000005
0.00146484
-0.0179443
-0.0222778
-0.010681200000000002
0.00683594
0.0198975
0.0289307
0.0271606
0.0184937
0.00860596
-0.0007324219999999999
-0.00286865
0.00250244
0.00518799
0.00317383
0.00524902
0.0147095
0.0300903
0.0393677
0.037353500000000005
0.0305176
0.0266113
0.0265503
0.026062
0.0199585
0.0102539
0.00726318
0.0130005
0.0245361
0.0302734
0.0259399
0.016723599999999998
0.0108032
0.0100708
0.0119019
0.016662599999999996
0.0255127
0.038208
0.0477295
0.0474243
0.0379028
0.026916500000000003
0.0151367
0.00830078
0.011718799999999998
0.0228271
0.0304565
0.0280762
0.0176392
0.00646973
0.00585938
0.0158691
0.0275879
0.034423800000000004
0.0379028
0.0375977
0.0335693
0.034179699999999986
0.036438
0.0377808
0.0368652
0.034668
0.0286865
0.0236206
0.0240479
0.0300903
0.0371094
0.0403442
0.0375366
0.0360107
0.0396729
0.0463257
0.0437012
0.0377808
0.033508300000000005
0.034729
0.0391846
0.0461426
0.0513306
0.049133300000000005
0.0453491
0.0428467
0.0426636
0.0471802
0.0535889
0.0560303
0.0536499
0.049804699999999986
0.0474854
0.046875
0.0505981
0.0585327
0.0608521
0.056457500000000015
0.0513306
0.0453491
0.0426636
0.0455933
0.049804699999999986
0.0546875
0.0582886
0.0592041
0.0610962
0.06988530000000001
0.08154299999999999
0.0899658
0.0933228
0.08935549999999999
0.0789795
0.0643921
0.049804699999999986
0.045105
0.0559692
0.0723267
0.0819702
0.0804443
0.0669556
0.0487061
0.0365601
0.03125
0.0335693
0.0401611
0.0471802
0.048950199999999985
0.0473022
0.0401001
0.0280762
0.0201416
0.0246582
0.0410156
0.0623779
0.0768433
0.07373049999999999
0.0619507
0.0494385
0.048584
0.0612183
0.07397460000000003
0.0836182
0.0784302
0.0678711
0.0615845
0.0588379
0.0630493
0.0719604
0.0836182
0.08789060000000001
0.08154299999999999
0.0657349
0.0456543
0.0283813
0.016052200000000003
0.00384521
-0.00268555
0.00683594
0.050415
0.149231
0.302185
0.46283
0.564026
0.567444
0.470215
0.32428
0.19043
0.102905
0.0721436
0.0792236
0.0971069
0.111755
0.116821
0.112366
0.105347
0.0982666
0.0968628
0.101562
0.108765
0.116455
0.122314
0.12298599999999997
0.116516
0.103027
0.090271
0.08673099999999999
0.0964966
0.116699
0.131165
0.13104200000000002
0.11792
0.0958252
0.07574460000000001
0.0686035
0.07543949999999999
0.0932617
0.107056
0.111511
0.104797
0.0861206
0.0664673
0.056640599999999985
0.0586548
0.06927489999999999
0.085083
0.10022
0.108948
0.104858
0.08789060000000001
0.0662842
0.052063
0.0453491
0.0377197
0.031555200000000005
0.0290527
0.0402832
0.057678199999999985
0.0664673
0.0628052
0.049255400000000005
0.0352783
0.026062
0.0274048
0.0377808
0.0490723
0.0597534
0.06604
0.0665283
0.0626831
0.0591431
0.06329349999999999
0.08026119999999999
0.103027
0.124634
0.133911
0.13610799999999998
0.140076
0.147217
0.156372
0.159363
0.156799
0.152222
0.150818
0.155029
0.161743
0.162415
0.158691
0.153687
0.149109
0.140991
0.131165
0.122925
0.121399
0.13305699999999998
0.148621
0.15783699999999998
0.15399200000000002
0.13989300000000002
0.125122
0.114319
0.118774
0.133118
0.143005
0.14624
0.143677
0.141968
0.136658
0.132996
0.130859
0.131653
0.12951700000000002
0.12579300000000002
0.123901
0.128906
0.145813
0.169189
0.190979
0.200562
0.18811
0.15979000000000002
0.13092
0.112732
0.114319
0.128662
0.144104
0.159607
0.169312
0.168152
0.159424
0.147217
0.139465
0.136169
0.13208
0.127563
0.13104200000000002
0.147644
0.169678
0.18634
0.181824
0.157898
0.12854000000000002
0.110046
0.109619
0.118713
0.131897
0.139343
0.138123
0.132324
0.124634
0.116028
0.114624
0.122559
0.13183599999999998
0.139709
0.150879
0.160828
0.160522
0.149109
0.131653
0.117432
0.115845
0.121643
0.127197
0.129333
0.122925
0.115295
0.115356
0.125
0.135864
0.139465
0.13623
0.128479
0.121826
0.126953
0.133545
0.136963
0.138489
0.131165
0.122131
0.120972
0.12725799999999998
0.133423
0.13684100000000002
0.135498
0.124268
0.110229
0.0987549
0.0939941
0.0995483
0.112427
0.12658699999999998
0.14111300000000002
0.149841
0.143372
0.128601
0.112122
0.106323
0.112549
0.121765
0.126099
0.12915
0.13830599999999998
0.1427
0.135254
0.117676
0.0985107
0.0912476
0.102112
0.120422
0.13324
0.132324
0.121155
0.109131
0.105347
0.111572
0.118164
0.120361
0.122864
0.12262
0.11438
0.105469
0.0931396
0.0806885
0.0755005
0.0792847
0.0901489
0.102905
0.111145
0.112976
0.108521
0.102905
0.0959473
0.0911255
0.0899658
0.0907593
0.0931396
0.0941162
0.0933838
0.0921021
0.0903931
0.0870361
0.08325199999999999
0.08526610000000001
0.0927734
0.0981445
0.0997925
0.0908813
0.07623289999999999
0.0700073
0.07373049999999999
0.0897827
0.106628
0.10675
0.0879517
0.0609741
0.0435181
0.044799800000000015
0.059021
0.07403560000000001
0.0760498
0.0621948
0.0377808
0.0155029
0.00854492
0.00976562
0.0131226
0.0200806
0.0288086
0.0400391
0.0525513
0.0639648
0.0738525
0.0796509
0.08081050000000001
0.0700073
0.0556641
0.0501099
0.0514526
0.0584106
0.0670776
0.06988530000000001
0.0648193
0.057678199999999985
0.0525513
0.048645
0.0407715
0.030334500000000007
0.0235596
0.0236816
0.0279541
0.0264893
0.0198364
0.0186157
0.0481567
0.137695
0.288513
0.464539
0.586487
0.595581
0.479248
0.290466
0.116394
0.0123291
-0.0150146
0.00726318
0.0443115
0.0723877
0.0845337
0.08496089999999999
0.0808716
0.0671997
0.0557861
0.052063
0.0535278
0.05780030000000001
0.05792240000000001
0.0515137
0.0445557
0.0419312
0.0422974
0.0429688
0.0432129
0.0446777
0.0452271
0.039917
0.0356445
0.0270386
0.018981900000000003
0.0147705
0.017334
0.0239258
0.0234375
0.015930200000000002
0.00683594
0.00427246
0.010498
0.016052200000000003
0.0134888
0.00268555
-0.00836182
-0.010681200000000002
-0.00128174
0.00756836
0.00836182
-0.000854492
-0.0195923
-0.033325199999999985
-0.036499
-0.0324097
-0.0216064
-0.00708008
0.00219727
-0.00256348
-0.0230713
-0.0475464
-0.0618896
-0.059021
-0.0432129
-0.0209961
-0.00457764
-0.00311279
-0.0124512
-0.0237427
-0.0254517
-0.0164185
-0.0022583000000000004
0.0150146
0.0292969
0.0422974
0.053710900000000006
0.0603638
0.06488039999999999
0.0688477
0.0717773
0.0727539
0.0690918
0.0640259
0.0581665
0.0544434
0.0484619
0.0400391
0.029785200000000005
0.017394999999999997
0.0102539
0.0205688
0.0379639
0.049255400000000005
0.0480957
0.0331421
0.011718799999999998
-0.0007324219999999999
0.00158691
0.015197799999999997
0.028869599999999995
0.033508300000000005
0.033325199999999985
0.031066900000000005
0.0275879
0.0239868
0.016235399999999997
0.0100098
0.0134888
0.0244751
0.0376587
0.0477295
0.0562744
0.053955099999999985
0.0368652
0.018066400000000003
0.00109863
-0.00604248
0.00299072
0.0178833
0.0294189
0.032714799999999995
0.0280151
0.024108900000000003
0.0280151
0.033630400000000005
0.0333862
0.0275879
0.0189209
0.0126343
0.0112305
0.0167847
0.0239258
0.032226599999999994
0.0360107
0.026123
0.00939941
-0.0032959000000000005
-0.00805664
-0.00665283
0.00250244
0.0078125
0.00738525
0.00384521
-6.10352e-05
-0.00299072
-0.00512695
-0.010498
-0.0142822
-0.012756299999999998
-0.0067749
-0.00238037
-0.00598145
-0.0149536
-0.0271606
-0.0314331
-0.0221558
-0.00628662
0.00421143
-0.0032959000000000005
-0.0238037
-0.044067400000000014
-0.0487061
-0.0386353
-0.0251465
-0.00860596
-0.000488281
-0.00323486
-0.0141602
-0.0304565
-0.043457
-0.0438843
-0.032653800000000004
-0.0205078
-0.0111084
-0.0101318
-0.0148315
-0.0213013
-0.024353
-0.0210571
-0.0217285
-0.0246582
-0.0241699
-0.022644
-0.0200806
-0.0228882
-0.0305786
-0.0386353
-0.0422974
-0.0355835
-0.023193400000000003
-0.0119019
-0.009033200000000002
-0.014892600000000002
-0.0239258
-0.0258789
-0.026916500000000003
-0.0268555
-0.026916500000000003
-0.0343018
-0.0394897
-0.0427856
-0.0455322
-0.0424194
-0.032653800000000004
-0.0231323
-0.0177002
-0.018066400000000003
-0.0228882
-0.0297241
-0.034362800000000006
-0.0320435
-0.0262451
-0.0232544
-0.0234985
-0.0216064
-0.016113299999999997
-0.0144653
-0.016357399999999998
-0.0263062
-0.0391846
-0.0462646
-0.0472412
-0.0427856
-0.0356445
-0.0259399
-0.0202026
-0.0200806
-0.024108900000000003
-0.0286865
-0.031005900000000006
-0.0278931
-0.0198364
-0.0123291
-0.00939941
-0.0144653
-0.0209351
-0.024292
-0.0257568
-0.0275269
-0.0239258
-0.010498
0.00146484
0.00939941
0.00317383
-0.0169067
-0.0397339
-0.056457500000000015
-0.0584106
-0.042175300000000006
-0.0219116
-0.0114746
-0.013183600000000002
-0.024108900000000003
-0.0328369
-0.031005900000000006
-0.020874
-0.00958252
-0.00317383
-0.00268555
-0.00463867
-0.0128174
-0.0197754
-0.02771
-0.0383301
-0.0415649
-0.0311279
-0.0162964
-0.0055542000000000005
-0.000976562
-0.00714111
-0.0175781
-0.026062
-0.0291138
-0.023864700000000003
-0.0172729
-0.0125732
-0.011779799999999998
-0.012146
-0.00738525
-0.00305176
-0.00653076
-0.0158691
-0.0266113
-0.0374146
-0.0368042
-0.0273438
-0.0162964
-0.00238037
0.00250244
0.000915527
-0.00427246
-0.0129395
-0.0236206
-0.0299683
-0.0247803
-0.0164185
-0.00793457
-0.00244141
-0.000915527
-0.00140381
-0.00311279
-0.00500488
-0.00738525
-0.00634766
-0.00628662
-0.00366211
0.000366211
0.00140381
-0.00183105
-0.00927734
-0.016479499999999998
-0.0194702
-0.016845699999999998
-0.0103149
-0.00537109
0.000305176
0.0007324219999999999
-0.00592041
-0.0078125
-0.00152588
0.005737300000000001
0.013305700000000002
0.015197799999999997
0.00933838
0.00311279
-0.00250244
-0.00805664
-0.0129395
-0.0152588
-0.0144043
-0.00793457
-0.00311279
0.00354004
0.00476074
-0.00109863
-0.00390625
0.00384521
0.0111694
0.0159912
0.0146484
0.00537109
-0.00378418
-0.00994873
-0.009033200000000002
-0.00152588
0.00848389
0.0176392
0.0266113
0.032714799999999995
0.0353394
0.034362800000000006
0.0269775
0.0239258
0.0205688
0.0198975
0.0149536
0.00427246
-0.00531006
-0.0105591
-0.00939941
-0.0007324219999999999
0.00335693
-0.00598145
-0.0291748
-0.0502319
-0.059021
-0.0529785
-0.0372925
-0.0203247
-0.00738525
0.00445557
0.016845699999999998
0.0271606
0.0296021
0.0239258
0.00646973
-0.010437
-0.0146484
0.000793457
0.0241699
0.0455933
0.0512085
0.0403442
0.015319799999999996
-0.0098877
-0.0245972
-0.0213013
-0.009033200000000002
0.0007324219999999999
-0.00408936
-0.0175781
-0.0278931
-0.0174561
0.0426025
0.15850799999999998
0.306519
0.433838
0.484131
0.436707
0.312256
0.170898
0.06750489999999999
0.020752
0.0185547
0.0379639
0.0515137
0.0509644
0.0465698
0.0435181
0.0404663
0.041748
0.0428467
0.0394897
0.0328979
0.0333862
0.0379639
0.040405300000000005
0.041748
0.0487671
0.0593872
0.06604
0.062439
0.0424805
0.0184326
0.00268555
0.0010376
0.0101318
0.0266724
0.0397339
0.0405884
0.0328369
0.022033700000000003
0.0169067
0.0188599
0.0203857
0.0187378
0.0194092
0.0234985
0.028442400000000007
0.0357666
0.0385742
0.0337524
0.021667500000000003
0.00665283
-0.00292969
-0.00567627
-0.00189209
0.009033200000000002
0.020813
0.0300903
0.0332031
0.0252075
0.0108032
-0.00268555
-0.00982666
-0.00830078
0.00244141
0.015625
0.0178223
0.0125122
0.00836182
0.0119629
0.0228271
0.0421143
0.0585938
0.06530760000000001
0.06854249999999999
0.0684814
0.0697021
0.0801392
0.0962524
0.112793
0.119385
0.116516
0.107483
0.0983887
0.0932617
0.0952148
0.10437
0.110291
0.110718
0.103088
0.0874023
0.0684814
0.05242919999999999
0.0488281
0.0588379
0.07519529999999999
0.088562
0.0957031
0.0950317
0.08227539999999997
0.06835939999999999
0.06555180000000001
0.07128910000000001
0.0831909
0.0924072
0.0928955
0.0844727
0.0769043
0.07189939999999999
0.0658569
0.06463619999999999
0.06927489999999999
0.0740967
0.07598880000000001
0.0783691
0.0870972
0.0934448
0.08959960000000003
0.0819092
0.0737915
0.07299800000000001
0.0847778
0.101318
0.10498
0.0942993
0.0801392
0.0747681
0.0796509
0.088501
0.09002689999999999
0.0794067
0.06854249999999999
0.0665283
0.0717163
0.07989500000000001
0.086853
0.0910034
0.08691410000000001
0.07745360000000001
0.069397
0.0686035
0.07653810000000001
0.08697510000000001
0.0865479
0.0758667
0.0546265
0.0372925
0.0410156
0.0570679
0.0705566
0.0704346
0.053833000000000006
0.0352783
0.029541
0.0332031
0.041748
0.0508423
0.057251
0.0609131
0.0649414
0.0648193
0.0635376
0.06292719999999999
0.062561
0.0592651
0.0596313
0.0586548
0.0581665
0.0618286
0.0679932
0.06793210000000001
0.061767599999999985
0.0565186
0.0557251
0.0597534
0.065979
0.0715942
0.07360839999999999
0.0723267
0.067749
0.0577393
0.048645
0.044799800000000015
0.0510254
0.06610110000000001
0.08636469999999999
0.0975952
0.0948486
0.07855219999999999
0.0574951
0.0388794
0.0307007
0.0287476
0.034118699999999995
0.0455933
0.0606689
0.0762939
0.0880127
0.0934448
0.08355710000000001
0.0618286
0.042175300000000006
0.0365601
0.0462036
0.0601807
0.069397
0.0778198
0.0897217
0.098938
0.102295
0.0905151
0.0674438
0.0455322
0.0342407
0.0385742
0.0530396
0.0706787
0.0820312
0.0879517
0.0947876
0.0964355
0.0916138
0.0845337
0.0799561
0.08001710000000001
0.0803833
0.08050539999999999
0.0803833
0.0788574
0.07733150000000001
0.0792847
0.0834961
0.083374
0.07916260000000001
0.07110599999999999
0.0643921
0.0657349
0.0750122
0.0864868
0.10199
0.112366
0.109741
0.0915527
0.0679932
0.0513306
0.0505981
0.06530760000000001
0.08416749999999999
0.0987549
0.104492
0.105347
0.10083
0.0908203
0.08117680000000001
0.0703735
0.0592651
0.0592651
0.072876
0.0942383
0.109436
0.115662
0.104248
0.0827026
0.0636597
0.05896000000000001
0.06530760000000001
0.0750122
0.08233639999999999
0.08807369999999999
0.0949707
0.100586
0.0979614
0.0897217
0.08178710000000003
0.081604
0.0917969
0.104675
0.106873
0.0993042
0.08264160000000001
0.0688477
0.06781010000000001
0.08105470000000001
0.0955811
0.103943
0.100098
0.08874510000000001
0.0738525
0.0643311
0.0709229
0.0856323
0.098999
0.104065
0.10022
0.0928345
0.0862427
0.08300779999999999
0.0831909
0.08966060000000001
0.098877
0.100708
0.0944824
0.0899048
0.08551030000000001
0.0831909
0.0872803
0.0874634
0.08636469999999999
0.0856934
0.0873413
0.0960693
0.10571300000000003
0.109558
0.107422
0.101318
0.0959473
0.0977783
0.100708
0.103699
0.109253
0.117615
0.12677
0.12951700000000002
0.126099
0.115906
0.103943
0.101074
0.110657
0.119934
0.117859
0.0997925
0.0700073
0.0455933
0.033508300000000005
0.0307007
0.0357666
0.041626
0.0502319
0.060729999999999985
0.0697021
0.0706177
0.0612183
0.0502319
0.045166000000000005
0.0517578
0.06414790000000001
0.0769653
0.0859375
0.0880127
0.0812988
0.06542970000000001
0.0541382
0.050415
0.055419900000000015
0.0648193
0.06762699999999999
0.0650635
0.0658569
0.0637207
0.0612183
0.0596924
0.0563965
0.0430908
0.0133667
-0.0177002
-0.025634800000000003
0.0192261
0.130981
0.292297
0.447327
0.53186
0.51593
0.408447
0.266479
0.137939
0.0575562
0.0335693
0.0531006
0.0903931
0.123352
0.134277
0.118225
0.0935059
0.076416
0.0714111
0.0742798
0.0787354
0.07598880000000001
0.0656128
0.05896000000000001
0.0630493
0.0749512
0.0857544
0.093689
0.0947266
0.08923339999999999
0.0825806
0.0727539
0.0653687
0.0598145
0.059082
0.0628052
0.0674438
0.0698242
0.06530760000000001
0.0588989
0.0562134
0.0571899
0.0596924
0.06951900000000001
0.0786743
0.0802002
0.072876
0.053710900000000006
0.0353394
0.0339966
0.043396
0.0501099
0.0531006
0.0561523
0.0571289
0.0600586
0.0637207
0.06164550000000001
0.052612300000000015
0.0386353
0.0281372
0.0213623
0.019104
0.023193400000000003
0.035949699999999994
0.0521851
0.0623169
0.06414790000000001
0.053772
0.0408936
0.0463867
0.0631714
0.0767822
0.0891724
0.095459
0.0984497
0.103821
0.10986300000000003
0.118164
0.126282
0.130798
0.133301
0.130066
0.124756
0.121704
0.11969
0.122559
0.122925
0.118713
0.10968
0.10571300000000003
0.108398
0.117188
0.116882
0.108765
0.0940552
0.0813599
0.07733150000000001
0.0881958
0.101929
0.106262
0.101379
0.0933228
0.08935549999999999
0.0936279
0.10321
0.111755
0.111511
0.10376
0.0922852
0.08551030000000001
0.0892944
0.0999756
0.107971
0.108643
0.103699
0.101868
0.106934
0.114624
0.119507
0.116455
0.108276
0.101074
0.103394
0.11438
0.119202
0.108276
0.0919189
0.0786743
0.0799561
0.08874510000000001
0.0979614
0.105164
0.106873
0.102661
0.100403
0.0982666
0.0969849
0.102417
0.110413
0.113831
0.111572
0.101868
0.0865479
0.0807495
0.0890503
0.098938
0.102966
0.0952148
0.08264160000000001
0.07452389999999999
0.078125
0.092041
0.102722
0.101685
0.0876465
0.0718384
0.0671387
0.07562260000000001
0.0872192
0.0933228
0.0946655
0.0949097
0.100342
0.108643
0.110718
0.103455
0.08874510000000001
0.0734253
0.0686035
0.07592769999999999
0.0915527
0.107666
0.121521
0.127197
0.122131
0.111206
0.0985107
0.0894775
0.08178710000000003
0.0758667
0.07250980000000001
0.0775757
0.0894775
0.100037
0.101807
0.100586
0.10083
0.104309
0.105286
0.100952
0.0921021
0.086792
0.09002689999999999
0.104187
0.116333
0.113281
0.0988159
0.0872803
0.0856323
0.0914307
0.0986938
0.0996094
0.100586
0.104187
0.108276
0.109802
0.108154
0.104126
0.108276
0.118835
0.12799100000000002
0.13030999999999998
0.117859
0.103943
0.09741210000000003
0.0994873
0.105957
0.10986300000000003
0.111633
0.115906
0.119629
0.114441
0.108093
0.101318
0.0974731
0.0990601
0.103271
0.109497
0.113831
0.11853
0.125366
0.13183599999999998
0.13446
0.131226
0.121948
0.112366
0.111023
0.114197
0.118408
0.120178
0.123718
0.122925
0.119202
0.115662
0.114136
0.109375
0.104736
0.102844
0.109619
0.119019
0.126892
0.12951700000000002
0.125854
0.11731
0.111755
0.11377
0.124451
0.14593499999999998
0.159363
0.155212
0.13501
0.107849
0.0925293
0.09741210000000003
0.114441
0.130737
0.137207
0.140076
0.143555
0.144836
0.143066
0.134827
0.12915
0.135254
0.148865
0.159912
0.166931
0.166992
0.162109
0.160522
0.166016
0.174988
0.17413299999999998
0.161011
0.136047
0.110229
0.0975342
0.09790039999999997
0.100098
0.0993042
0.0971069
0.0906982
0.08526610000000001
0.08959960000000003
0.102295
0.118042
0.134155
0.143799
0.146057
0.139648
0.128906
0.126343
0.132141
0.13855
0.142578
0.141663
0.137329
0.131714
0.125671
0.117737
0.113647
0.121582
0.13623
0.140625
0.136169
0.120056
0.0964355
0.0690308
0.037353500000000005
0.013305700000000002
0.0112915
0.0603638
0.176453
0.338013
0.494812
0.586548
0.5798949999999999
0.485901
0.351135
0.22705100000000006
0.14971900000000002
0.126831
0.13855
0.156555
0.169006
0.166199
0.154602
0.142151
0.135559
0.138245
0.149048
0.15802
0.157898
0.150635
0.145386
0.148438
0.155823
0.16125499999999998
0.161621
0.150879
0.133728
0.122131
0.119202
0.123108
0.128967
0.13147
0.134766
0.135254
0.131653
0.12561
0.122437
0.118408
0.112854
0.10968
0.105164
0.107666
0.112
0.110229
0.104858
0.0960083
0.0883789
0.09008789999999997
0.097168
0.101868
0.101685
0.0961914
0.0947876
0.0987549
0.101135
0.098938
0.08673099999999999
0.0769043
0.0786743
0.0795898
0.0775146
0.0719604
0.0654907
0.0595703
0.0635986
0.0689697
0.0731812
0.07910160000000001
0.0856934
0.0997925
0.116577
0.12878399999999998
0.136902
0.143372
0.153198
0.167664
0.184509
0.194824
0.200989
0.200684
0.189636
0.177368
0.167725
0.16155999999999998
0.169312
0.190613
0.205322
0.21020500000000006
0.197021
0.171692
0.148499
0.138184
0.136719
0.142578
0.155701
0.175293
0.185486
0.183838
0.171021
0.156372
0.148499
0.148621
0.157593
0.17028800000000002
0.175293
0.173218
0.168579
0.162842
0.156799
0.151917
0.148132
0.153137
0.170898
0.190674
0.194214
0.184937
0.170898
0.15783699999999998
0.153015
0.15399200000000002
0.15631099999999998
0.165161
0.179016
0.194031
0.197998
0.186462
0.166138
0.148499
0.142761
0.146606
0.155823
0.168396
0.176331
0.180298
0.174072
0.159607
0.147766
0.14502
0.147217
0.14868199999999998
0.149597
0.153809
0.155945
0.156372
0.159058
0.160339
0.15856900000000002
0.150085
0.140259
0.135986
0.143799
0.162964
0.176758
0.174622
0.156555
0.13385
0.122498
0.12579300000000002
0.13708499999999998
0.15387
0.168701
0.179199
0.177734
0.16430699999999998
0.143677
0.13153099999999998
0.13677999999999998
0.148132
0.154907
0.15564
0.156799
0.16394
0.177429
0.192566
0.196106
0.177368
0.144714
0.11499
0.106628
0.124207
0.15564
0.179016
0.183289
0.172729
0.155396
0.145203
0.147095
0.158691
0.170105
0.173584
0.172974
0.169373
0.162659
0.155579
0.154053
0.160706
0.172852
0.18512
0.185852
0.176453
0.156921
0.14111300000000002
0.14135699999999998
0.153198
0.170105
0.181458
0.186279
0.187378
0.187256
0.19165
0.198547
0.201111
0.199463
0.192017
0.181824
0.184875
0.208008
0.229736
0.23468000000000006
0.21783400000000006
0.19281
0.17218
0.165405
0.17486600000000002
0.188477
0.192444
0.186035
0.17157
0.15673800000000002
0.143372
0.137268
0.13830599999999998
0.14361600000000002
0.155579
0.168762
0.18103
0.187683
0.18927
0.188049
0.183777
0.177551
0.171692
0.165955
0.162476
0.168274
0.178894
0.189575
0.191711
0.18573
0.178528
0.174927
0.173523
0.175171
0.18042
0.177979
0.164185
0.148315
0.128418
0.112793
0.116577
0.14288299999999998
0.204407
0.31561300000000003
0.464172
0.6035159999999999
0.684937
0.673706
0.557373
0.38501
0.23590100000000006
0.14971900000000002
0.132019
0.161621
0.200012
0.223206
0.227844
0.219666
0.209229
0.205383
0.202148
0.201599
0.201355
0.200439
0.197571
0.195007
0.187195
0.182068
0.181152
0.182007
0.182434
0.181458
0.182129
0.184021
0.188599
0.195312
0.202759
0.202393
0.192017
0.178528
0.169495
0.1698
0.174622
0.17981
0.182495
0.180969
0.176025
0.169922
0.16333
0.159912
0.159912
0.163696
0.172852
0.181213
0.179749
0.164429
0.145386
0.132202
0.128296
0.135071
0.146179
0.150574
0.149048
0.145874
0.14294400000000002
0.144592
0.147766
0.151367
0.14624
0.135925
0.12854000000000002
0.127869
0.136292
0.15673800000000002
0.17627
0.184692
0.187012
0.193665
0.207397
0.226624
0.246277
0.253784
0.251221
0.24231
0.23468000000000006
0.23645
0.248352
0.258972
0.259216
0.250732
0.238281
0.230957
0.225952
0.220459
0.216675
0.208984
0.201355
0.203003
0.214417
0.230042
0.237915
0.234863
0.222961
0.213135
0.209229
0.21051
0.218323
0.230164
0.237366
0.238586
0.23175
0.218689
0.205933
0.201111
0.207764
0.215637
0.219482
0.216797
0.210632
0.210815
0.21991
0.230591
0.23877
0.24292
0.243469
0.241577
0.233948
0.224426
0.217224
0.210083
0.205627
0.207092
0.211304
0.21759
0.22345
0.223511
0.225037
0.224182
0.21905500000000006
0.216492
0.213867
0.20874
0.20282
0.202698
0.211731
0.220825
0.2276
0.223816
0.212646
0.19519
0.180908
0.17413299999999998
0.174927
0.185242
0.201172
0.214233
0.221375
0.223572
0.21905500000000006
0.209656
0.200317
0.194275
0.192444
0.195129
0.200256
0.203674
0.202271
0.192993
0.183472
0.183105
0.190796
0.198669
0.203735
0.206055
0.205933
0.206421
0.203064
0.199951
0.194946
0.186768
0.180359
0.176819
0.180115
0.187439
0.195618
0.200867
0.198425
0.187561
0.180603
0.180664
0.192078
0.203979
0.20752
0.208191
0.202332
0.199829
0.196289
0.187012
0.178772
0.177856
0.178223
0.183044
0.188599
0.194519
0.196655
0.193176
0.189819
0.190552
0.196045
0.200867
0.205566
0.211914
0.224426
0.23895300000000005
0.248535
0.242554
0.220093
0.191528
0.173645
0.174927
0.188477
0.200317
0.20166
0.185791
0.161377
0.136292
0.121277
0.122437
0.134888
0.148621
0.155151
0.158325
0.163574
0.16955599999999998
0.172485
0.17334000000000002
0.17114300000000002
0.167542
0.167297
0.169006
0.173706
0.17511
0.17346199999999998
0.171509
0.177063
0.177856
0.169006
0.156372
0.143555
0.142456
0.15423599999999998
0.16394
0.160645
0.148132
0.135071
0.128479
0.125305
0.123352
0.127747
0.166321
0.266541
0.427856
0.596619
0.694641
0.680359
0.5523680000000001
0.364868
0.196594
0.0995483
0.0784302
0.107727
0.14746099999999998
0.173584
0.180603
0.176758
0.171021
0.16381800000000002
0.158875
0.158386
0.160645
0.162354
0.162415
0.164246
0.162354
0.15240499999999998
0.147583
0.143921
0.141907
0.137268
0.13092
0.12701400000000002
0.12738
0.135071
0.144348
0.14856
0.143066
0.128906
0.113892
0.107788
0.116638
0.13385
0.148071
0.152283
0.14263900000000002
0.127563
0.114441
0.107666
0.110352
0.113098
0.10986300000000003
0.104431
0.0999756
0.0991821
0.0987549
0.098877
0.0993042
0.101501
0.107422
0.115845
0.122253
0.115967
0.100952
0.0795898
0.0633545
0.0637207
0.0799561
0.0985107
0.11084
0.115112
0.110596
0.104431
0.110657
0.125
0.140869
0.154724
0.16925
0.183838
0.194519
0.201294
0.200562
0.198303
0.18988
0.175232
0.159607
0.14624
0.144592
0.150269
0.15625
0.15826400000000002
0.154541
0.14624
0.139648
0.14013699999999998
0.144226
0.144714
0.14093
0.137512
0.140869
0.14868199999999998
0.150879
0.149292
0.141052
0.133667
0.13183599999999998
0.132385
0.132629
0.129456
0.128235
0.135254
0.149902
0.162048
0.163696
0.15246600000000002
0.133301
0.117676
0.10986300000000003
0.10888699999999997
0.121277
0.143677
0.163269
0.167725
0.159607
0.14068599999999998
0.125427
0.119324
0.121582
0.126221
0.126282
0.124695
0.132507
0.14221199999999998
0.153076
0.160706
0.150635
0.13030999999999998
0.108032
0.0894775
0.0802002
0.0859375
0.103638
0.122314
0.130188
0.127869
0.114685
0.093811
0.0766602
0.07208250000000001
0.07574460000000001
0.0842896
0.0959473
0.10553
0.114502
0.120667
0.119995
0.10968
0.08770750000000001
0.0657349
0.0521851
0.052734400000000015
0.07592769999999999
0.0969238
0.102905
0.0942993
0.0792847
0.0699463
0.0686646
0.0716553
0.07397460000000003
0.07391360000000001
0.07135010000000001
0.0704346
0.07745360000000001
0.0879517
0.0960693
0.0953979
0.08813480000000001
0.0767212
0.0645752
0.0541382
0.0512695
0.060729999999999985
0.07916260000000001
0.10022
0.108398
0.0983276
0.0764771
0.0545654
0.0377808
0.0389404
0.05505369999999999
0.0703735
0.081665
0.08898930000000001
0.0924683
0.09008789999999997
0.08081050000000001
0.0635376
0.048217800000000005
0.0384521
0.0378418
0.0457764
0.0586548
0.072937
0.0803833
0.0845337
0.0820923
0.0715332
0.0609741
0.0547485
0.05242919999999999
0.0518799
0.0560303
0.0584106
0.0593872
0.0627441
0.0668335
0.0719604
0.0765991
0.0760498
0.0669556
0.052734400000000015
0.0459595
0.0505981
0.0613403
0.0703735
0.0725708
0.06988530000000001
0.0654907
0.0556641
0.0474243
0.0494995
0.0588989
0.06530760000000001
0.067688
0.0653687
0.060424800000000015
0.0612183
0.0639648
0.0650635
0.0592041
0.0488892
0.0394287
0.0380249
0.0457764
0.0551758
0.0612793
0.06463619999999999
0.0715942
0.0784302
0.08172610000000001
0.0782471
0.06610110000000001
0.046936
0.0323486
0.0271606
0.0319214
0.0430298
0.0601807
0.0752563
0.0856323
0.0892944
0.07989500000000001
0.0586548
0.0375977
0.0206299
0.0192261
0.0371704
0.0617065
0.07635499999999999
0.07635499999999999
0.06060790000000001
0.0449829
0.0389404
0.0404663
0.0446167
0.0460205
0.0488281
0.057312
0.062561
0.06665039999999997
0.0668335
0.0596313
0.0454102
0.0291748
0.0217285
0.0311279
0.0425415
0.0518188
0.0560913
0.0507812
0.0452271
0.0435181
0.041992199999999986
0.0371704
0.0306396
0.0264282
0.0300293
0.0432739
0.0571899
0.0599976
0.0562744
0.0471802
0.034179699999999986
0.0214233
0.0202026
0.033630400000000005
0.0509033
0.06164550000000001
0.0623779
0.0494995
0.0334473
0.026916500000000003
0.028198200000000007
0.0365601
0.0515747
0.0608521
0.0596313
0.0456543
0.0255127
0.00927734
0.00482178
0.0188599
0.0400391
0.0513306
0.0507202
0.042175300000000006
0.0357666
0.0379028
0.0391846
0.0357666
0.0269775
0.017394999999999997
0.0141602
0.0177002
0.029541
0.044067400000000014
0.0592651
0.062439
0.0505981
0.030334500000000007
0.0100708
0.0010376
0.0109863
0.032531700000000004
0.0519409
0.06152340000000001
0.0596924
0.0508423
0.0371094
0.022583
0.0157471
0.0141602
0.0134888
0.0102539
0.00366211
0.0012207
0.00238037
0.00640869
0.0100708
0.00738525
-0.0022583000000000004
-0.017394999999999997
-0.033325199999999985
-0.0427246
-0.0401611
-0.0245361
-0.00524902
0.00701904
0.0143433
0.00830078
-0.00762939
-0.0183716
-0.0218506
-0.0239258
-0.0198364
-0.00549316
0.0106201
0.024353
0.0306396
0.0251465
0.0115356
-0.00158691
-0.00946045
-0.0110474
-0.00714111
0.00115967
0.00964355
0.0129395
0.00250244
-0.0178223
-0.0459595
-0.062439
-0.0324097
0.06658939999999999
0.218445
0.377808
0.473633
0.460999
0.338928
0.168579
0.0285034
-0.0357056
-0.0292358
0.00671387
0.0391846
0.0562134
0.053772
0.041870099999999986
0.026916500000000003
0.00842285
-0.00561523
-0.00683594
-0.00152588
0.00665283
0.0126953
0.0123291
0.0043335
-0.0012207
-0.00268555
-0.00482178
-0.00762939
-0.00872803
-0.0010376
0.00708008
0.00469971
-0.00634766
-0.0212402
-0.0345459
-0.0328979
-0.015563999999999996
0.00213623
0.010437
0.00616455
-0.00872803
-0.0217896
-0.0281372
-0.024353
-0.0179443
-0.0134277
-0.0107422
-0.0101318
-0.0175781
-0.0272217
-0.036377
-0.0480957
-0.0532837
-0.0454712
-0.0335693
-0.0247803
-0.0262451
-0.035949699999999994
-0.0472412
-0.0576172
-0.0621948
-0.0579834
-0.0466919
-0.0335693
-0.0235596
-0.0240479
-0.031555200000000005
-0.0375366
-0.0389404
-0.036987300000000015
-0.0360718
-0.028869599999999995
-0.0122681
0.00671387
0.0270996
0.0448608
0.0473633
0.0407104
0.033081099999999995
0.026367200000000004
0.022399900000000004
0.0264282
0.0386353
0.0517578
0.0531006
0.0390625
0.0200806
0.00732422
0.000854492
-0.00280762
-0.00427246
0.00732422
0.0280762
0.0409546
0.0391235
0.0181885
-0.00897217
-0.0255127
-0.0268555
-0.019104
-0.0067749
0.00415039
0.0130005
0.0199585
0.0245361
0.0235596
0.0161743
0.00445557
-0.00689697
-0.0131226
-0.0145874
-0.00543213
0.0088501
0.0241699
0.0344849
0.0314331
0.018066400000000003
-0.00378418
-0.0253906
-0.0384521
-0.037231400000000005
-0.0195312
-0.000427246
0.00872803
0.0078125
-0.000671387
-0.0105591
-0.015197799999999997
-0.0147705
-0.0106201
-0.00457764
0.00219727
0.0043335
0.00213623
-0.00610352
-0.0171509
-0.023193400000000003
-0.0227661
-0.022644
-0.0265503
-0.033508300000000005
-0.0401611
-0.0432739
-0.0430908
-0.0380249
-0.0280151
-0.0203857
-0.0201416
-0.0303955
-0.043945300000000014
-0.0514526
-0.0488281
-0.0449219
-0.0419312
-0.0408936
-0.0432129
-0.0476074
-0.0480957
-0.0435791
-0.0366211
-0.0314331
-0.0308838
-0.0343018
-0.041992199999999986
-0.0424194
-0.0378418
-0.0292358
-0.0214844
-0.0232544
-0.0298462
-0.035461400000000004
-0.0367432
-0.0365601
-0.0396729
-0.0435181
-0.041687
-0.0383301
-0.034179699999999986
-0.031189
-0.032531700000000004
-0.036377
-0.0366821
-0.0377808
-0.0366211
-0.0352173
-0.033508300000000005
-0.0320435
-0.0281372
-0.0248413
-0.022399900000000004
-0.0165405
-0.0167847
-0.0236816
-0.0368652
-0.0507812
-0.0549316
-0.0454712
-0.0338745
-0.031066900000000005
-0.0339966
-0.0360107
-0.0348511
-0.032531700000000004
-0.0255127
-0.0197144
-0.0218506
-0.0296631
-0.0392456
-0.0430908
-0.0424194
-0.0391846
-0.0372925
-0.0314941
-0.024353
-0.018066400000000003
-0.015625
-0.0201416
-0.030212400000000007
-0.0383911
-0.041137699999999985
-0.0386963
-0.0290527
-0.0234375
-0.0216064
-0.026916500000000003
-0.035461400000000004
-0.0441284
-0.0501099
-0.044799800000000015
-0.031311
-0.023315400000000003
-0.0217285
-0.0283203
-0.0355835
-0.0402832
-0.0393066
-0.0335693
-0.0301514
-0.0270996
-0.0228271
-0.015930200000000002
-0.0107422
-0.0118408
-0.0247803
-0.0393066
-0.0479126
-0.044799800000000015
-0.0396118
-0.0370483
-0.0366821
-0.0357056
-0.0350342
-0.033508300000000005
-0.030761700000000006
-0.026001
-0.0202026
-0.0194702
-0.0278931
-0.0366211
-0.0374146
-0.0292969
-0.014526400000000004
-0.00360107
-0.00427246
-0.0165405
-0.0300293
-0.0342407
-0.0314941
-0.02771
-0.0270996
-0.0283203
-0.031066900000000005
-0.033630400000000005
-0.0392456
-0.041626
-0.0377808
-0.030212400000000007
-0.0181274
-0.00915527
-0.00317383
-0.00714111
-0.0174561
-0.0299683
-0.0379028
-0.0394897
-0.0345459
-0.0275879
-0.0206299
-0.0202026
-0.0274658
-0.035949699999999994
-0.0385742
-0.037231400000000005
-0.0344849
-0.033081099999999995
-0.034179699999999986
-0.0296021
-0.0192261
-0.0107422
-0.00872803
-0.012756299999999998
-0.024353
-0.0363159
-0.0395508
-0.034362800000000006
-0.0289307
-0.0280762
-0.032226599999999994
-0.0357056
-0.0388184
-0.0380249
-0.0356445
-0.0338135
-0.026062
-0.0181885
-0.010376
-0.00354004
-0.00164795
-0.00299072
-0.0115967
-0.0270386
-0.0437622
-0.0570679
-0.06463619999999999
-0.0639648
-0.0610962
-0.062561
-0.06781010000000001
-0.072937
-0.07208250000000001
-0.0699463
-0.0695801
-0.074585
-0.0827637
-0.0905762
-0.0940552
-0.0870361
-0.0667725
-0.0462036
-0.0319214
-0.0321045
-0.0424805
-0.0552368
-0.0645752
-0.06781010000000001
-0.0637207
-0.0502319
-0.0338135
-0.0248413
-0.0253906
-0.0360107
-0.0533447
-0.06665039999999997
-0.06555180000000001
-0.0565186
-0.0474243
-0.044067400000000014
-0.0444946
-0.0551147
-0.0784912
-0.110046
-0.136047
-0.12884500000000002
-0.0614014
0.06530760000000001
0.222168
0.352051
0.406372
0.361389
0.237976
0.0942383
-0.018066400000000003
-0.0794678
-0.08551030000000001
-0.059082
-0.0265503
-0.00793457
-0.00671387
-0.0139771
-0.022033700000000003
-0.0228882
-0.0224609
-0.0264893
-0.033325199999999985
-0.0374756
-0.0403442
-0.0397949
-0.0342407
-0.0332031
-0.0343018
-0.0360718
-0.0365601
-0.035461400000000004
-0.0368042
-0.0342407
-0.0302734
-0.0298462
-0.0332642
-0.0487671
-0.06616210000000003
-0.07324220000000001
-0.069458
-0.05896000000000001
-0.050415
-0.0473022
-0.0480957
-0.0493774
-0.046875
-0.0385742
-0.0337524
-0.0411987
-0.0562744
-0.0697632
-0.0723877
-0.0656128
-0.0558472
-0.0463867
-0.0474854
-0.0541992
-0.06781010000000001
-0.08380130000000001
-0.0969238
-0.104736
-0.104126
-0.0952759
-0.0838623
-0.0725708
-0.0671387
-0.0697021
-0.07507319999999999
-0.0762939
-0.0740967
-0.0595703
-0.0351562
-0.017211900000000002
-0.0106201
-0.0130005
-0.0194092
-0.0230713
-0.0239868
-0.0178833
-0.00384521
0.0143433
0.028869599999999995
0.032226599999999994
0.0269775
0.0112915
0.000427246
-0.00189209
0.00683594
0.0205688
0.0285034
0.0245972
0.0119629
0.00012207
-0.00720215
-0.00970459
-0.00756836
-0.00744629
-0.0110474
-0.0153809
-0.015197799999999997
-0.00982666
0.00292969
0.011718799999999998
0.00964355
0.00213623
-0.0010376
0.00695801
0.011779799999999998
0.0098877
-0.00146484
-0.0196533
-0.0286255
-0.021667500000000003
-0.00708008
0.00317383
0.00524902
0.00640869
0.00842285
0.00952148
0.00854492
0.00726318
0.00915527
0.00805664
0.00311279
-0.00335693
-0.00872803
-0.00671387
-0.00274658
-0.00115967
-0.00195312
-0.000305176
-0.000549316
-0.0012207
-0.000244141
0.00567627
0.013183600000000002
0.0153809
0.00939941
-0.00311279
-0.0150757
-0.0172729
-0.00933838
-0.000793457
-6.10352e-05
-0.00610352
-0.0152588
-0.0181274
-0.0178223
-0.0171509
-0.0194702
-0.0238037
-0.0249634
-0.0192261
-0.0101929
-0.00335693
0.00268555
0.000793457
-0.00427246
-0.0105591
-0.015319799999999996
-0.0203857
-0.0303955
-0.03302
-0.0217896
-0.00970459
0.00109863
0.00274658
-0.00665283
-0.018981900000000003
-0.025634800000000003
-0.024231
-0.017334
-0.0102539
-0.00439453
-0.000427246
0.00299072
0.00219727
-0.00189209
-0.00909424
-0.016357399999999998
-0.0197144
-0.0186768
-0.0103149
0.00756836
0.0211182
0.0201416
0.00537109
-0.017761199999999998
-0.0287476
-0.0239258
-0.00616455
0.013916
0.0291748
0.0325928
0.0222168
0.00683594
-0.0100098
-0.0227661
-0.03125
-0.0304565
-0.020874
-0.00439453
0.0155029
0.0308228
0.0343018
0.0294189
0.0170898
0.00610352
0.0032959000000000005
0.010437
0.0187988
0.0223389
0.0247803
0.0281372
0.0305786
0.0297241
0.0233765
0.0130615
0.00140381
-0.005737300000000001
-0.00378418
0.00494385
0.0195312
0.033325199999999985
0.0384521
0.038269
0.0372925
0.031860400000000004
0.0281372
0.0302734
0.0314941
0.0303955
0.0256958
0.0188599
0.016235399999999997
0.020752
0.0302734
0.0391235
0.0401611
0.031311
0.016723599999999998
0.00939941
0.012756299999999998
0.0192871
0.023315400000000003
0.0288086
0.0446777
0.0649414
0.08001710000000001
0.0789795
0.0615845
0.0396729
0.0230103
0.0164185
0.016113299999999997
0.0198364
0.0271606
0.038085900000000006
0.0482788
0.053955099999999985
0.0487671
0.0339966
0.0222778
0.0206909
0.0294189
0.041687
0.0529785
0.0656128
0.07733150000000001
0.0899048
0.0948486
0.0836792
0.0531006
0.0158691
-0.0105591
-0.0192261
-0.00970459
0.00354004
0.0134277
0.0174561
0.0193481
0.0193481
0.0109253
0.00213623
-0.00494385
-0.00732422
-0.00360107
0.00708008
0.0302734
0.060546900000000015
0.08966060000000001
0.102966
0.0912476
0.0579834
0.022522
0.00524902
0.0155029
0.038147
0.0570679
0.0649414
0.0640259
0.0568237
0.0512085
0.0513306
0.0546875
0.059021
0.0570679
0.0443115
0.026062
0.0196533
0.0249634
0.0289307
0.0278931
0.0291138
0.05242919999999999
0.132446
0.270386
0.415405
0.500061
0.479248
0.363647
0.213318
0.0928345
0.0345459
0.036193800000000005
0.06988530000000001
0.103149
0.119263
0.119934
0.117432
0.117065
0.117737
0.114075
0.106262
0.0955811
0.0860596
0.08398439999999999
0.0860596
0.08789060000000001
0.0899048
0.0922852
0.0925293
0.0973511
0.0983887
0.08966060000000001
0.0780029
0.06835939999999999
0.0637207
0.0649414
0.0704956
0.0779419
0.0863037
0.0914307
0.0913086
0.0879517
0.0846558
0.08398439999999999
0.0813599
0.07543949999999999
0.0697632
0.0591431
0.0510864
0.0498657
0.0514526
0.05432130000000001
0.0582886
0.0635376
0.0650024
0.0588989
0.0443115
0.0296631
0.0246582
0.0290527
0.0413818
0.055603
0.0643311
0.0630493
0.0531006
0.0396729
0.0307007
0.028198200000000007
0.032775900000000004
0.0410767
0.0514526
0.0618286
0.0682983
0.0682373
0.06622310000000001
0.0704956
0.0804443
0.0983276
0.126526
0.152649
0.167114
0.166443
0.153381
0.141235
0.14032
0.144714
0.148621
0.151489
0.149902
0.142517
0.136719
0.133545
0.135681
0.13708499999999998
0.135864
0.13000499999999998
0.123901
0.119324
0.119568
0.126038
0.136475
0.146118
0.151001
0.151917
0.152283
0.151184
0.146362
0.14209000000000002
0.137695
0.136719
0.138062
0.138794
0.13903800000000002
0.137573
0.136902
0.139954
0.14679
0.153748
0.15918
0.155945
0.150146
0.151489
0.155579
0.15686
0.159485
0.16003399999999998
0.159302
0.15826400000000002
0.15856900000000002
0.151428
0.13989300000000002
0.131958
0.13305699999999998
0.143799
0.152527
0.152344
0.140808
0.127441
0.121826
0.124268
0.134949
0.144287
0.150574
0.1521
0.143311
0.13684100000000002
0.13336199999999998
0.13030999999999998
0.126831
0.123657
0.124756
0.125305
0.124084
0.125183
0.12915
0.131775
0.129456
0.121155
0.11438
0.117249
0.127686
0.139709
0.144348
0.130676
0.114319
0.103882
0.103088
0.114868
0.130493
0.14288299999999998
0.150146
0.158875
0.154114
0.135437
0.116943
0.10199
0.0991821
0.10675
0.116882
0.127075
0.134644
0.14209000000000002
0.14788800000000002
0.149048
0.139648
0.12262
0.108154
0.101196
0.106689
0.120117
0.135071
0.155334
0.171265
0.171631
0.15240499999999998
0.119751
0.0924072
0.081665
0.08886720000000001
0.106934
0.124695
0.139282
0.155396
0.170044
0.171265
0.164978
0.14788800000000002
0.130371
0.119934
0.116394
0.115234
0.117065
0.121826
0.128967
0.145691
0.170349
0.191406
0.195618
0.174255
0.134155
0.10199
0.100769
0.123169
0.153381
0.17218
0.167114
0.145691
0.120667
0.108643
0.115906
0.133179
0.148254
0.158447
0.16272
0.160156
0.158447
0.162109
0.169739
0.176819
0.17791700000000002
0.17218
0.164062
0.160583
0.159546
0.15325899999999998
0.14971900000000002
0.146423
0.142395
0.140198
0.13836700000000002
0.137817
0.135925
0.129639
0.12451199999999997
0.124817
0.12731900000000002
0.127625
0.122253
0.117798
0.112793
0.105774
0.0998535
0.0974731
0.10376
0.122314
0.142334
0.147766
0.13989300000000002
0.124573
0.111755
0.113403
0.12579300000000002
0.134705
0.14263900000000002
0.151794
0.161682
0.16381800000000002
0.156616
0.14325
0.132935
0.13610799999999998
0.148499
0.160828
0.16308599999999998
0.152649
0.136902
0.120911
0.103577
0.085083
0.0731812
0.08117680000000001
0.13708499999999998
0.252136
0.408752
0.5551149999999999
0.6351319999999999
0.620667
0.50647
0.343018
0.200256
0.120483
0.10968
0.138184
0.176758
0.195679
0.187927
0.167236
0.152283
0.14941400000000002
0.156677
0.164856
0.162415
0.157288
0.16351300000000002
0.177856
0.186584
0.186157
0.169067
0.147644
0.133484
0.134521
0.145508
0.155334
0.158386
0.153015
0.14715599999999998
0.13903800000000002
0.136536
0.13861099999999998
0.13830599999999998
0.133972
0.123779
0.11554
0.124878
0.152954
0.179993
0.183105
0.15783699999999998
0.113281
0.0721436
0.0614624
0.07745360000000001
0.104919
0.124817
0.130493
0.129944
0.117981
0.101135
0.0845337
0.0702515
0.06591799999999999
0.0687866
0.0710449
0.0734253
0.0834961
0.0999146
0.116028
0.122681
0.115173
0.0935669
0.07269289999999999
0.06024169999999999
0.0621948
0.0789795
0.103027
0.124695
0.144592
0.162354
0.170715
0.17138699999999998
0.172119
0.168518
0.163452
0.166992
0.182129
0.204346
0.217468
0.21698
0.199402
0.171448
0.148254
0.136597
0.132812
0.139343
0.15448
0.17028800000000002
0.177979
0.172058
0.160278
0.147827
0.138245
0.139343
0.146484
0.152222
0.157532
0.160156
0.16095
0.157471
0.150085
0.146729
0.151978
0.157104
0.16272
0.166321
0.161926
0.15466300000000002
0.143982
0.13684100000000002
0.137695
0.144348
0.150574
0.152954
0.16155999999999998
0.178833
0.199524
0.20636
0.191528
0.161133
0.129822
0.113892
0.118286
0.134399
0.15393099999999998
0.170166
0.17687999999999998
0.17718499999999998
0.162354
0.139099
0.12262
0.116821
0.11969
0.125366
0.140747
0.153564
0.161499
0.159119
0.145813
0.125305
0.107483
0.0961914
0.0933838
0.103333
0.120117
0.13092
0.132324
0.126099
0.119873
0.121765
0.123962
0.12384
0.117615
0.109558
0.108337
0.116577
0.135376
0.146973
0.139526
0.124268
0.105408
0.0947876
0.0941162
0.0997925
0.10986300000000003
0.123474
0.13446
0.135986
0.124329
0.105774
0.0899658
0.08221439999999999
0.0874634
0.104004
0.124451
0.14141800000000002
0.150879
0.150146
0.13256800000000002
0.108459
0.0872803
0.07916260000000001
0.0836792
0.0952148
0.108276
0.116394
0.117615
0.116516
0.114441
0.111328
0.108704
0.10571300000000003
0.103577
0.106689
0.116211
0.13208
0.142822
0.149048
0.14624
0.135254
0.124756
0.11377
0.106628
0.097229
0.0872803
0.0845337
0.09552
0.110962
0.121277
0.124329
0.121948
0.119568
0.118408
0.115601
0.11853
0.125671
0.131287
0.139526
0.140198
0.133484
0.12561
0.119324
0.118835
0.116455
0.108276
0.0938721
0.08172610000000001
0.0844116
0.0966187
0.109985
0.120361
0.123901
0.122314
0.124084
0.124878
0.127625
0.124084
0.11377
0.104126
0.101929
0.110596
0.122009
0.129944
0.125854
0.114014
0.0991821
0.08660889999999999
0.0812378
0.0831909
0.0877686
0.0939331
0.103333
0.116394
0.125977
0.126831
0.120056
0.108521
0.09729
0.0899658
0.0913696
0.102173
0.114319
0.122375
0.121887
0.110657
0.0946045
0.0819092
0.074646
0.0772095
0.0917969
0.105347
0.111816
0.114075
0.114014
0.111328
0.10888699999999997
0.104675
0.100647
0.0997314
0.101685
0.103088
0.1026
0.100281
0.0968018
0.0968018
0.0983887
0.0968628
0.0950928
0.102295
0.114746
0.121277
0.116943
0.100952
0.0824585
0.08154299999999999
0.0922852
0.101929
0.106689
0.104614
0.101685
0.0993042
0.0995483
0.101196
0.0980835
0.0910034
0.0883789
0.0942993
0.101318
0.102112
0.0992432
0.0926514
0.08935549999999999
0.0916748
0.0980225
0.105652
0.111084
0.110107
0.104919
0.0947876
0.085083
0.08142089999999999
0.08142089999999999
0.08770750000000001
0.0976562
0.103516
0.101074
0.09729
0.09552
0.0966187
0.0993042
0.103088
0.10986300000000003
0.112427
0.114014
0.117859
0.120972
0.12262
0.118225
0.113342
0.111511
0.11676
0.124207
0.117493
0.102356
0.0846558
0.06988530000000001
0.0636597
0.0630493
0.0649414
0.0640869
0.0587158
0.053710900000000006
0.0496216
0.0471191
0.0474854
0.0574341
0.07208250000000001
0.0812378
0.0834961
0.0805664
0.07714839999999999
0.07891849999999999
0.0831909
0.08514400000000001
0.0838623
0.0865479
0.0941772
0.0983276
0.0973511
0.0882568
0.07470700000000001
0.064209
0.06311040000000001
0.07373049999999999
0.08380130000000001
0.0899048
0.08966060000000001
0.0705566
0.0427246
0.0251465
0.0501099
0.145813
0.304993
0.474854
0.582581
0.582336
0.46814
0.290527
0.127808
0.032226599999999994
0.0198364
0.0570068
0.105652
0.141296
0.150452
0.14263900000000002
0.125183
0.105957
0.0917969
0.08288569999999999
0.0811157
0.0889282
0.103638
0.110229
0.10614
0.0956421
0.08355710000000001
0.07391360000000001
0.06579589999999999
0.0664673
0.07269289999999999
0.0848389
0.100586
0.108154
0.103516
0.0908813
0.08001710000000001
0.07299800000000001
0.0695801
0.072876
0.0758057
0.0750122
0.0794678
0.08782960000000001
0.0847168
0.0720215
0.0582275
0.0491943
0.0470581
0.0499268
0.06463619999999999
0.079834
0.08874510000000001
0.0894775
0.07360839999999999
0.052002
0.0368042
0.031066900000000005
0.0360107
0.0406494
0.0452881
0.0512085
0.06152340000000001
0.0716553
0.07269289999999999
0.0650024
0.043396
0.0247803
0.0234985
0.0356445
0.0529785
0.0720215
0.0874023
0.0996704
0.101746
0.0974731
0.0962524
0.0961304
0.10144
0.11303699999999997
0.123413
0.133728
0.14593499999999998
0.156555
0.158752
0.15423599999999998
0.143188
0.128418
0.11731
0.111023
0.109924
0.109314
0.112854
0.120056
0.120911
0.118652
0.117554
0.117554
0.114807
0.106262
0.0993652
0.104187
0.11615
0.128723
0.129028
0.115723
0.0950317
0.08404539999999999
0.08660889999999999
0.0974731
0.112305
0.123474
0.130554
0.13305699999999998
0.134766
0.126648
0.111633
0.0950928
0.08325199999999999
0.0795288
0.08380130000000001
0.0988159
0.120361
0.136169
0.143433
0.135742
0.118164
0.09741210000000003
0.0831909
0.0844116
0.0925903
0.10571300000000003
0.115051
0.116394
0.112793
0.107666
0.098938
0.08923339999999999
0.0847168
0.0842285
0.0907593
0.103394
0.11138900000000003
0.11138900000000003
0.0966797
0.0731812
0.053955099999999985
0.0510864
0.0592651
0.0684814
0.07562260000000001
0.0784302
0.0731812
0.0622559
0.0485229
0.0395508
0.0427856
0.0529785
0.0621948
0.065979
0.0626221
0.0570068
0.0568237
0.06988530000000001
0.0853882
0.08966060000000001
0.08227539999999997
0.0670776
0.0534058
0.0494995
0.054992700000000005
0.0635986
0.07135010000000001
0.0737915
0.06610110000000001
0.0536499
0.0455933
0.043457
0.0443726
0.0493164
0.0531616
0.0574951
0.0664673
0.078186
0.0854492
0.08251950000000001
0.07312010000000001
0.0593872
0.0548706
0.06610110000000001
0.0782471
0.0755005
0.06311040000000001
0.0460815
0.0343018
0.0357056
0.0480957
0.0621948
0.0703735
0.07208250000000001
0.0748901
0.0770264
0.0820923
0.0876465
0.085083
0.0783081
0.06591799999999999
0.0513306
0.0459595
0.0586548
0.08172610000000001
0.0986938
0.0952759
0.07733150000000001
0.0560303
0.0427856
0.0397339
0.0495605
0.06622310000000001
0.08062739999999999
0.0866699
0.08770750000000001
0.0831909
0.0795288
0.0788574
0.07879639999999999
0.07312010000000001
0.06671139999999999
0.06610110000000001
0.07110599999999999
0.0802002
0.0852051
0.08007810000000001
0.0691528
0.0620728
0.0601807
0.0597534
0.0626831
0.07098389999999999
0.086792
0.10437
0.11084
0.0985718
0.0769653
0.0560913
0.0455322
0.05432130000000001
0.0772095
0.097229
0.10583499999999997
0.101624
0.086853
0.0736694
0.0647583
0.0652466
0.07299800000000001
0.0776367
0.0783691
0.0769653
0.0755005
0.0805664
0.0872803
0.09008789999999997
0.0905151
0.0915527
0.08886720000000001
0.08526610000000001
0.08221439999999999
0.0836182
0.0861816
0.0899658
0.0911255
0.08660889999999999
0.07745360000000001
0.07073969999999999
0.0717163
0.08062739999999999
0.0952759
0.106079
0.105774
0.0969238
0.0883789
0.08050539999999999
0.0764771
0.078186
0.0812988
0.0819702
0.08355710000000001
0.08374019999999999
0.0836792
0.081665
0.0819092
0.0897217
0.103516
0.10907
0.102539
0.0924072
0.0870361
0.0863037
0.0899048
0.0922852
0.08831789999999999
0.08221439999999999
0.0784912
0.07714839999999999
0.08050539999999999
0.08886720000000001
0.0958252
0.10022
0.101685
0.0980225
0.0962524
0.100403
0.106995
0.115295
0.118469
0.111633
0.101135
0.0926514
0.08886720000000001
0.0859985
0.09002689999999999
0.0959473
0.100586
0.0988159
0.0927734
0.0906372
0.0914307
0.097168
0.105347
0.108948
0.112305
0.107605
0.10199
0.100342
0.0990601
0.100891
0.102356
0.104797
0.10986300000000003
0.116272
0.120117
0.122681
0.12561
0.126709
0.127563
0.130371
0.128418
0.117004
0.0963135
0.07269289999999999
0.056762699999999985
0.0561523
0.06665039999999997
0.0758057
0.0772705
0.0674438
0.0551147
0.0483398
0.052612300000000015
0.0671387
0.08343510000000001
0.0926514
0.0935669
0.0935669
0.0921631
0.0889282
0.0845337
0.0812988
0.0738525
0.0671997
0.0703735
0.0772705
0.0871582
0.0985718
0.104614
0.105652
0.0999146
0.0870972
0.0730591
0.0651245
0.0630493
0.0608521
0.049804699999999986
0.0352783
0.0289917
0.0606689
0.152222
0.297729
0.458313
0.55957
0.560425
0.462524
0.307312
0.16095
0.0662842
0.042175300000000006
0.0716553
0.113708
0.143127
0.143127
0.120789
0.0967407
0.0856323
0.0897217
0.102783
0.112
0.113586
0.108276
0.0971069
0.08691410000000001
0.08007810000000001
0.07574460000000001
0.0775146
0.0864258
0.0938721
0.0997314
0.100037
0.0977173
0.0925903
0.0852051
0.07733150000000001
0.07733150000000001
0.078125
0.0783691
0.08117680000000001
0.0793457
0.07312010000000001
0.0645752
0.0574951
0.0614014
0.0734253
0.08184810000000001
0.0809937
0.07244869999999999
0.06024169999999999
0.0502319
0.049255400000000005
0.0584717
0.0753784
0.0882568
0.0874023
0.0743408
0.052612300000000015
0.0350952
0.0296631
0.036254900000000014
0.0499268
0.0531006
0.0497437
0.0407104
0.032531700000000004
0.0321655
0.034179699999999986
0.038269
0.044067400000000014
0.0518188
0.0628052
0.072876
0.0874634
0.10498
0.116699
0.122253
0.120422
0.115784
0.116394
0.1203
0.127686
0.134216
0.134155
0.130554
0.128296
0.1297
0.134216
0.137512
0.138245
0.138
0.13446
0.127625
0.116211
0.105469
0.100952
0.102844
0.110596
0.119202
0.120667
0.119141
0.115051
0.112122
0.114746
0.114075
0.109131
0.108643
0.110535
0.114075
0.116516
0.118835
0.118958
0.114136
0.110474
0.108826
0.11138900000000003
0.116272
0.12561
0.139343
0.148621
0.138672
0.116882
0.08923339999999999
0.0692139
0.07189939999999999
0.0880127
0.0985107
0.104919
0.108521
0.109619
0.111023
0.117126
0.124939
0.129028
0.119568
0.103088
0.08886720000000001
0.0836792
0.0874634
0.0970459
0.100281
0.0922241
0.08227539999999997
0.0740967
0.07128910000000001
0.0736694
0.0727539
0.07098389999999999
0.07452389999999999
0.0819092
0.0873413
0.0852051
0.07281489999999999
0.0615845
0.0574341
0.06024169999999999
0.0682983
0.07482910000000001
0.0758057
0.07714839999999999
0.07971189999999999
0.0845947
0.08233639999999999
0.072937
0.0640869
0.0587769
0.0612793
0.0716553
0.08636469999999999
0.0970459
0.104675
0.100708
0.08233639999999999
0.06024169999999999
0.0447388
0.0415649
0.0481567
0.0634155
0.07708739999999999
0.0783081
0.0775146
0.0845337
0.0974731
0.110962
0.112549
0.0991211
0.0807495
0.0588989
0.043945300000000014
0.0393677
0.0476685
0.06555180000000001
0.0836792
0.0925293
0.0889282
0.07879639999999999
0.06811519999999999
0.0635986
0.06665039999999997
0.07299800000000001
0.076416
0.0725708
0.0679932
0.0834961
0.109253
0.128418
0.126038
0.0977783
0.0559082
0.030761700000000006
0.035522500000000005
0.0600586
0.081604
0.088562
0.0856323
0.08221439999999999
0.0825806
0.0871582
0.08966060000000001
0.08691410000000001
0.08300779999999999
0.081604
0.0825806
0.08953860000000001
0.0963745
0.0952148
0.0880127
0.07745360000000001
0.0663452
0.0606689
0.0608521
0.0703735
0.0854492
0.0971069
0.100342
0.0933838
0.08001710000000001
0.067749
0.060729999999999985
0.0596313
0.06738279999999999
0.0776367
0.0845947
0.0861206
0.08435060000000001
0.0827026
0.0802002
0.0748901
0.0741577
0.07531739999999999
0.07910160000000001
0.0906982
0.104004
0.106506
0.100098
0.0812988
0.0609131
0.0532837
0.0545654
0.0636597
0.0778809
0.0946045
0.108704
0.11499
0.105774
0.08953860000000001
0.0715942
0.0582886
0.0552368
0.0599365
0.074585
0.0952148
0.113342
0.124634
0.11377
0.0891724
0.0618286
0.0466919
0.0507812
0.0644531
0.07623289999999999
0.08496089999999999
0.0917969
0.0976562
0.0993042
0.0981445
0.092041
0.08142089999999999
0.0753784
0.07562260000000001
0.0803833
0.0892944
0.0911865
0.0881958
0.083374
0.07891849999999999
0.0758667
0.07507319999999999
0.0784302
0.083374
0.0864258
0.09008789999999997
0.0916138
0.0944824
0.0987549
0.102112
0.109314
0.10986300000000003
0.097229
0.0775757
0.056640599999999985
0.0473022
0.0482788
0.0512695
0.0532227
0.0501099
0.046936
0.0410156
0.0345459
0.0265503
0.0211792
0.0222778
0.02771
0.0370483
0.0471802
0.0532227
0.06024169999999999
0.0714722
0.0856934
0.0953979
0.0927734
0.0797729
0.0640259
0.0513916
0.0446777
0.0463867
0.0585938
0.0721436
0.08026119999999999
0.08093260000000001
0.07226560000000001
0.0593872
0.048645
0.0454102
0.0444336
0.0328979
0.0120239
-0.00378418
0.00115967
0.055419900000000015
0.165466
0.31012
0.445679
0.518677
0.495972
0.37616
0.218445
0.0880127
0.024292
0.0236816
0.0620728
0.101135
0.120605
0.119568
0.105286
0.0921021
0.0841064
0.08526610000000001
0.0945435
0.0999756
0.0958252
0.0812378
0.0622559
0.0518188
0.0544434
0.0667725
0.085083
0.10321
0.111633
0.104736
0.08184810000000001
0.0556641
0.0390015
0.0353394
0.0424805
0.052917499999999985
0.059021
0.06579589999999999
0.0755615
0.08435060000000001
0.0861206
0.0749512
0.049987800000000006
0.0230713
0.0131226
0.0195923
0.0311279
0.0386353
0.0437622
0.0565186
0.07574460000000001
0.0865479
0.0803833
0.0568237
0.0192871
-0.00476074
-0.00579834
0.00695801
0.0227661
0.0314941
0.0323486
0.0308228
0.024108900000000003
0.0110474
-0.000244141
-0.00714111
-0.00646973
0.00219727
0.0122681
0.0203857
0.027771
0.0367432
0.0535889
0.0792236
0.104187
0.119019
0.110962
0.0909424
0.07855219999999999
0.0834961
0.108032
0.137573
0.153198
0.152649
0.132874
0.107483
0.0911255
0.0824585
0.0829468
0.0924683
0.103699
0.11303699999999997
0.117371
0.117859
0.120117
0.121399
0.121643
0.118286
0.11261
0.105591
0.0975342
0.0941772
0.100952
0.118774
0.131958
0.13501
0.126099
0.115295
0.107117
0.101807
0.102783
0.103943
0.104675
0.107056
0.109558
0.11303699999999997
0.116028
0.116394
0.116882
0.116333
0.119446
0.121521
0.119202
0.113342
0.108154
0.104431
0.105896
0.112671
0.120605
0.122314
0.121582
0.118347
0.118164
0.115784
0.108704
0.0977173
0.0872803
0.0788574
0.0795288
0.0889282
0.103455
0.113342
0.116577
0.108093
0.0941772
0.08312989999999999
0.07562260000000001
0.0727539
0.0769043
0.0847168
0.0925903
0.101501
0.107727
0.10614
0.0959473
0.0776367
0.06164550000000001
0.0631714
0.0783691
0.09729
0.115906
0.119263
0.10614
0.0933838
0.0784302
0.07373049999999999
0.0750122
0.07635499999999999
0.07592769999999999
0.0841064
0.0973511
0.107056
0.10907
0.098938
0.0831909
0.0705566
0.06689450000000001
0.0716553
0.0842285
0.0963135
0.101318
0.101196
0.100586
0.0976562
0.0940552
0.0909424
0.0899658
0.0932007
0.0971069
0.0998535
0.101685
0.101746
0.0968628
0.0931396
0.0914307
0.0917969
0.0924683
0.0946655
0.100159
0.106384
0.107239
0.103821
0.0985107
0.0942383
0.0921631
0.0923462
0.0974731
0.104431
0.1073
0.107849
0.106873
0.0999146
0.0951538
0.0955811
0.103333
0.11499
0.128479
0.131287
0.121765
0.108093
0.0966797
0.0897217
0.08697510000000001
0.0914917
0.098938
0.106079
0.111633
0.111084
0.107971
0.104614
0.0991211
0.101929
0.11291500000000003
0.12579300000000002
0.133545
0.137817
0.134949
0.128662
0.11853
0.109741
0.103088
0.0993042
0.102295
0.10583499999999997
0.112061
0.113708
0.110291
0.107971
0.109619
0.114502
0.121765
0.123352
0.11969
0.120483
0.122437
0.123535
0.12451199999999997
0.123047
0.115845
0.111511
0.115723
0.12561
0.129211
0.129456
0.122009
0.104797
0.08935549999999999
0.0783081
0.0701294
0.0735474
0.0841064
0.086792
0.0775757
0.06427000000000001
0.0559692
0.05792240000000001
0.0697021
0.0852051
0.097229
0.10437
0.108826
0.113525
0.120483
0.123413
0.120178
0.114929
0.113586
0.115601
0.117188
0.117493
0.11676
0.114075
0.114929
0.118286
0.11853
0.115784
0.11084
0.100159
0.0916748
0.0788574
0.0580444
0.0325928
0.0177002
0.032775900000000004
0.0999146
0.231689
0.403748
0.552917
0.623901
0.576904
0.433777
0.266296
0.13915999999999998
0.08026119999999999
0.08343510000000001
0.120178
0.14746099999999998
0.145264
0.13531500000000002
0.12323
0.120605
0.13000499999999998
0.136658
0.134216
0.13153099999999998
0.13226300000000002
0.13446
0.14068599999999998
0.146423
0.146057
0.140991
0.135132
0.130371
0.121826
0.114563
0.108826
0.110901
0.125244
0.142151
0.15551800000000002
0.154358
0.13562000000000002
0.107727
0.0812378
0.06762699999999999
0.0727539
0.0914917
0.109741
0.11853
0.116882
0.10614
0.0921021
0.0858154
0.086792
0.0871582
0.0845337
0.0786133
0.07220460000000001
0.0735474
0.074646
0.07733150000000001
0.0787354
0.0703735
0.059021
0.05432130000000001
0.0560303
0.05694580000000001
0.0610962
0.0649414
0.0645752
0.06048580000000001
0.0512085
0.0400391
0.0390015
0.0524902
0.0697021
0.0783081
0.08233639999999999
0.08697510000000001
0.0982666
0.116516
0.144043
0.16656500000000002
0.179321
0.180054
0.177063
0.171448
0.168274
0.170105
0.17114300000000002
0.1698
0.167542
0.16534400000000002
0.159668
0.15631099999999998
0.156433
0.155579
0.155151
0.157349
0.158386
0.157349
0.151672
0.147217
0.147827
0.151184
0.161499
0.177795
0.192261
0.188904
0.170105
0.142822
0.125
0.127686
0.149597
0.175171
0.187561
0.186584
0.175781
0.162598
0.157166
0.161499
0.169434
0.173584
0.174072
0.17114300000000002
0.164856
0.15918
0.15918
0.16833499999999998
0.17993199999999998
0.184998
0.186401
0.180054
0.164917
0.14978
0.141846
0.137573
0.143066
0.154297
0.169434
0.182434
0.181702
0.165527
0.14788800000000002
0.139526
0.145996
0.153564
0.150696
0.139709
0.131714
0.132507
0.141174
0.148621
0.152893
0.152832
0.146179
0.134705
0.124817
0.119019
0.128418
0.14978
0.17157
0.177246
0.16394
0.141296
0.124268
0.118896
0.124146
0.130615
0.138977
0.145691
0.147095
0.146545
0.14447000000000002
0.1427
0.141846
0.143494
0.152344
0.1604
0.160339
0.155212
0.144287
0.134827
0.12854000000000002
0.123291
0.119263
0.12207
0.129578
0.138428
0.143555
0.145752
0.144775
0.141541
0.139343
0.141052
0.146851
0.151855
0.153015
0.15393099999999998
0.157288
0.160217
0.1604
0.150757
0.134399
0.121765
0.119385
0.132507
0.153503
0.163147
0.158081
0.14868199999999998
0.1427
0.143555
0.148438
0.154175
0.15979000000000002
0.158325
0.151062
0.140991
0.133423
0.138489
0.153809
0.17114300000000002
0.180542
0.178894
0.168579
0.15551800000000002
0.147644
0.142456
0.141479
0.14502
0.148621
0.154846
0.157471
0.153198
0.14971900000000002
0.151001
0.154419
0.155945
0.153503
0.152527
0.154053
0.159302
0.16735799999999998
0.17511
0.178955
0.172485
0.15802
0.144775
0.142822
0.15448
0.1698
0.17218
0.161133
0.13989300000000002
0.119629
0.10675
0.102478
0.0960083
0.08770750000000001
0.0894165
0.101685
0.115295
0.121155
0.122864
0.123901
0.12738
0.131348
0.132751
0.122864
0.113342
0.11145
0.117004
0.133911
0.153076
0.163635
0.16308599999999998
0.153503
0.148132
0.150635
0.15155
0.153137
0.15240499999999998
0.14971900000000002
0.146057
0.14093
0.132324
0.120178
0.10583499999999997
0.0918579
0.0856323
0.0919189
0.13092
0.228638
0.373413
0.527771
0.626953
0.626648
0.519897
0.35827600000000004
0.209595
0.115845
0.0914307
0.117004
0.152954
0.174316
0.180969
0.178467
0.168457
0.15863
0.150085
0.143738
0.141846
0.142761
0.150391
0.161621
0.16534400000000002
0.15631099999999998
0.145691
0.139221
0.13830599999999998
0.141052
0.14221199999999998
0.133301
0.126282
0.125549
0.126038
0.128113
0.13409400000000002
0.134521
0.128052
0.121948
0.114136
0.108643
0.10907
0.111206
0.117798
0.123108
0.126892
0.126282
0.117004
0.105286
0.0956421
0.0883789
0.0886841
0.09021
0.0882568
0.0845337
0.08178710000000003
0.0814819
0.0820312
0.07855219999999999
0.0758667
0.07269289999999999
0.0701294
0.06610110000000001
0.06604
0.0697021
0.07543949999999999
0.0789795
0.081604
0.08831789999999999
0.0945435
0.0916748
0.08898930000000001
0.0897217
0.0959473
0.111755
0.134155
0.144897
0.151062
0.152527
0.155273
0.165894
0.178955
0.185791
0.182495
0.174377
0.172913
0.175781
0.174744
0.16955599999999998
0.157532
0.149536
0.14898699999999998
0.14941400000000002
0.143982
0.130798
0.114807
0.11138900000000003
0.129272
0.152771
0.165771
0.16278099999999998
0.142761
0.122375
0.113464
0.121216
0.138184
0.15423599999999998
0.163696
0.163452
0.15918
0.157227
0.154053
0.150085
0.146851
0.14288299999999998
0.139648
0.136719
0.131348
0.128967
0.126404
0.126099
0.130737
0.137756
0.143555
0.145264
0.14679
0.151917
0.154602
0.152893
0.146179
0.136902
0.134949
0.137573
0.137573
0.134827
0.131409
0.12731900000000002
0.119507
0.112427
0.106812
0.102783
0.104431
0.115723
0.129395
0.13183599999999998
0.123169
0.107239
0.097229
0.0993652
0.111877
0.118591
0.11499
0.102844
0.0891113
0.0809937
0.0847168
0.0992432
0.115295
0.121582
0.115784
0.100281
0.0824585
0.0765991
0.0899658
0.108582
0.123413
0.124023
0.111267
0.0928345
0.0761108
0.06842039999999999
0.0733032
0.0883789
0.0990601
0.0986328
0.08789060000000001
0.0775757
0.0775757
0.0864258
0.0934448
0.0946045
0.0906982
0.0888062
0.097168
0.110168
0.120789
0.116394
0.0962524
0.072876
0.0596313
0.0583496
0.0650024
0.08264160000000001
0.105347
0.11499
0.111694
0.0927124
0.0710449
0.062561
0.0701904
0.0847778
0.0999146
0.11138900000000003
0.114746
0.111694
0.103088
0.0942383
0.08404539999999999
0.0737915
0.0664673
0.0644531
0.0700684
0.08050539999999999
0.0910034
0.0971069
0.090332
0.0775146
0.06964110000000001
0.0698242
0.0742798
0.07733150000000001
0.0772705
0.0777588
0.0881958
0.104675
0.111816
0.10888699999999997
0.0944824
0.07403560000000001
0.0603638
0.0574951
0.0614624
0.06793210000000001
0.07623289999999999
0.08959960000000003
0.0967407
0.0871582
0.0675659
0.0471191
0.0390015
0.0455322
0.0576172
0.06927489999999999
0.07403560000000001
0.07879639999999999
0.0864868
0.0933228
0.101196
0.0994263
0.08251950000000001
0.06213380000000001
0.045105
0.0424194
0.0534668
0.06854249999999999
0.08026119999999999
0.0812988
0.07312010000000001
0.0610962
0.0563965
0.0603027
0.0658569
0.0692139
0.0706177
0.069397
0.06927489999999999
0.0742188
0.0845337
0.0940552
0.0935669
0.0803833
0.0599976
0.0505981
0.0571289
0.0704956
0.0796509
0.0775146
0.069397
0.0608521
0.0581665
0.0610962
0.0667725
0.07281489999999999
0.0794067
0.0859375
0.088562
0.0891113
0.08233639999999999
0.07574460000000001
0.0772705
0.0795898
0.08081050000000001
0.0801392
0.07733150000000001
0.07135010000000001
0.0649414
0.056640599999999985
0.0523682
0.0544434
0.059021
0.06518550000000001
0.0702515
0.0727539
0.0758667
0.08416749999999999
0.0924683
0.0962524
0.0973511
0.0934448
0.0921631
0.100586
0.0984497
0.0845337
0.0679932
0.055603
0.0518188
0.060424800000000015
0.0640869
0.0626831
0.06323240000000001
0.0654907
0.07543949999999999
0.08288569999999999
0.0782471
0.06555180000000001
0.0559082
0.0575562
0.0730591
0.0910034
0.102539
0.100647
0.0879517
0.0708618
0.0563965
0.0562134
0.0700073
0.07916260000000001
0.07879639999999999
0.069397
0.0568237
0.048950199999999985
0.0495605
0.057678199999999985
0.0716553
0.0860596
0.0953979
0.0990601
0.0931396
0.08264160000000001
0.07220460000000001
0.062561
0.060791
0.06579589999999999
0.0723877
0.08184810000000001
0.09729
0.119202
0.141479
0.15270999999999998
0.152527
0.145813
0.140747
0.13708499999999998
0.12915
0.118408
0.102417
0.088501
0.08093260000000001
0.0769043
0.0718384
0.0634155
0.0515137
0.0443726
0.0432739
0.0476685
0.059021
0.0740967
0.08770750000000001
0.0926514
0.0901489
0.0827637
0.0787354
0.0767212
0.0695801
0.0562134
0.0405273
0.0267334
0.022949200000000003
0.032653800000000004
0.0475464
0.0575562
0.0584106
0.0552979
0.0543823
0.0558472
0.0547485
0.0485229
0.0300903
0.00128174
-0.020752
-0.00335693
0.0766602
0.214905
0.379883
0.499878
0.529541
0.459778
0.31811500000000004
0.166504
0.0570068
0.00866699
0.0128174
0.0393066
0.067749
0.08691410000000001
0.0917969
0.08691410000000001
0.07879639999999999
0.0703735
0.0612793
0.0596924
0.06835939999999999
0.0794678
0.0770264
0.062439
0.0379028
0.0202026
0.0219116
0.0356445
0.0487061
0.0567017
0.0626831
0.0678711
0.0701904
0.064209
0.0513306
0.0317993
0.0148315
0.0115967
0.0308838
0.053833000000000006
0.06292719999999999
0.060791
0.0469971
0.0332031
0.0288086
0.0283813
0.0297241
0.0286255
0.0234985
0.0200195
0.0188599
0.0181274
0.015441899999999996
0.0139771
0.0126343
0.0115356
0.0134888
0.0165405
0.0176392
0.0187378
0.014526400000000004
0.00585938
-0.0010376
-0.00292969
0.0010376
0.0102539
0.0238037
0.034118699999999995
0.0328979
0.0192871
0.00384521
-0.00170898
0.00799561
0.0297241
0.0467529
0.05694580000000001
0.0633545
0.06951900000000001
0.07769780000000001
0.0874634
0.0981445
0.104004
0.103699
0.103088
0.104919
0.10968
0.116638
0.110535
0.0997314
0.085083
0.07098389999999999
0.0692139
0.07312010000000001
0.0753784
0.07403560000000001
0.0723267
0.07391360000000001
0.07574460000000001
0.07360839999999999
0.069397
0.07128910000000001
0.07623289999999999
0.0823975
0.0823975
0.07971189999999999
0.0788574
0.0805664
0.0856323
0.09008789999999997
0.08862300000000001
0.0779419
0.06622310000000001
0.06152340000000001
0.06835939999999999
0.08032230000000001
0.08514400000000001
0.08264160000000001
0.07452389999999999
0.06671139999999999
0.06164550000000001
0.0600586
0.0609131
0.06292719999999999
0.06964110000000001
0.0789795
0.0834961
0.0829468
0.0767822
0.0700073
0.065979
0.0667725
0.06738279999999999
0.06518550000000001
0.0648193
0.0667725
0.06616210000000003
0.0622559
0.0583496
0.0563965
0.06024169999999999
0.0579834
0.0502319
0.0386963
0.026123
0.0206299
0.0268555
0.0383301
0.0480957
0.0507812
0.0473633
0.0423584
0.0410767
0.0388184
0.0286865
0.0175171
0.0114136
0.0101929
0.015563999999999996
0.025817900000000005
0.0389404
0.0462646
0.0456543
0.0409546
0.0321655
0.0238037
0.024108900000000003
0.0345459
0.0478516
0.0531006
0.0457764
0.0292969
0.011718799999999998
0.00640869
0.00543213
0.00799561
0.0144043
0.0209961
0.0297241
0.036193800000000005
0.0397339
0.0402832
0.0357056
0.028869599999999995
0.022522
0.017334
0.0170898
0.0283813
0.0441284
0.053772
0.0472412
0.026367200000000004
0.00793457
0.0007324219999999999
0.00653076
0.019043
0.0324097
0.039856
0.0454712
0.0424194
0.031066900000000005
0.016967799999999998
0.0078125
0.00756836
0.011657700000000002
0.0182495
0.0280151
0.036193800000000005
0.0419312
0.0495605
0.0558472
0.0521851
0.035949699999999994
0.016052200000000003
0.00115967
-0.00567627
0.00146484
0.0246582
0.0529785
0.06964110000000001
0.067749
0.0473633
0.0201416
0.00463867
0.00579834
0.0161743
0.0247803
0.0314941
0.0375977
0.041748
0.0406494
0.0370483
0.0281372
0.0181885
0.0185547
0.0253906
0.0307007
0.0360107
0.0386963
0.0385132
0.0345459
0.0252075
0.0210571
0.0209961
0.0234985
0.0241699
0.022522
0.0219727
0.0247803
0.0290527
0.0350342
0.0404663
0.0460205
0.0499268
0.0488892
0.043396
0.0376587
0.0346069
0.0338135
0.0314941
0.0303955
0.0266724
0.0184937
0.0153809
0.0178833
0.0216064
0.0227661
0.0234375
0.0211182
0.0223389
0.0264893
0.0321045
0.0390015
0.0428467
0.0396729
0.0353394
0.0366211
0.0395508
0.041748
0.041748
0.0415039
0.0335693
0.0246582
0.0193481
0.0186157
0.023315400000000003
0.0308228
0.0289917
0.022949200000000003
0.0214233
0.0292358
0.0424805
0.053894
0.0570679
0.0455933
0.0292969
0.018981900000000003
0.0209351
0.0322876
0.0437012
0.0500488
0.0521851
0.0494995
0.0484009
0.045898400000000006
0.039856
0.0348511
0.0296631
0.0215454
0.0206909
0.0280762
0.036438
0.0415649
0.0437012
0.0445557
0.0454712
0.046936
0.0499268
0.0505981
0.0447388
0.036499
0.030334500000000007
0.0328369
0.0404663
0.0472412
0.049987800000000006
0.041442900000000005
0.0297241
0.0192261
0.0181885
0.027648900000000004
0.0449219
0.054992700000000005
0.0464478
0.0307007
0.019104
0.016235399999999997
0.026062
0.0408325
0.049255400000000005
0.0473633
0.0397949
0.034789999999999995
0.0377197
0.0456543
0.053772
0.0575562
0.0534058
0.048584
0.049682599999999986
0.0546265
0.0587769
0.05505369999999999
0.0401611
0.019104
0.000305176
-0.00866699
-0.00756836
-0.00201416
0.00463867
0.0148315
0.0135498
-0.00158691
-0.017028799999999997
-0.03302
-0.0402222
-0.0369263
-0.0206909
0.00219727
0.0245361
0.037353500000000005
0.0397339
0.0323486
0.0255737
0.0195312
0.010437
0.00549316
0.00653076
0.0120239
0.0185547
0.0238037
0.0210571
0.016113299999999997
0.0119629
0.013183600000000002
0.0172729
0.0149536
0.004516600000000001
-0.00744629
-0.0221558
-0.0386963
-0.0570068
-0.0637817
-0.0213623
0.086792
0.250977
0.411682
0.491699
0.457458
0.322449
0.158813
0.0357666
-0.0198364
-0.0132446
0.0256958
0.06542970000000001
0.08923339999999999
0.08959960000000003
0.069397
0.0444336
0.026916500000000003
0.0175781
0.012756299999999998
0.016967799999999998
0.0317993
0.0471802
0.055542
0.0508423
0.0348511
0.017761199999999998
0.0108032
0.016479499999999998
0.02771
0.032653800000000004
0.0290527
0.0203247
0.015930200000000002
0.024353
0.0363159
0.041687
0.0366821
0.0212402
0.00238037
-0.0123291
-0.0126343
-0.00280762
0.00665283
0.0122681
0.00823975
0.00396729
-0.00189209
-0.00872803
-0.00946045
-0.00848389
-0.00653076
-0.00354004
-0.00384521
-0.00805664
-0.0130615
-0.019043
-0.0204468
-0.0115356
-0.00604248
-0.00640869
-0.0197144
-0.0404663
-0.0482788
-0.043396
-0.0351562
-0.0251465
-0.0216064
-0.026916500000000003
-0.0328369
-0.0366211
-0.0342407
-0.027832
-0.0170898
-0.00268555
0.0132446
0.0264282
0.0331421
0.0396118
0.0476685
0.0588989
0.0734253
0.08551030000000001
0.0859375
0.0784302
0.0679932
0.05694580000000001
0.052002
0.0525513
0.0571899
0.0585938
0.053710900000000006
0.0485229
0.041442900000000005
0.033508300000000005
0.0332642
0.0366211
0.0390015
0.0379028
0.0410767
0.052673300000000006
0.06793210000000001
0.0780029
0.0726318
0.0567017
0.0404663
0.031189
0.0336914
0.0386353
0.041626
0.0413818
0.0402222
0.0421143
0.0488281
0.054992700000000005
0.0548706
0.0502319
0.0466919
0.0430298
0.041687
0.045166000000000005
0.0509033
0.0494385
0.0422363
0.0393677
0.0447388
0.0587769
0.07519529999999999
0.0819092
0.07128910000000001
0.0522461
0.0314941
0.022644
0.0305786
0.041748
0.049255400000000005
0.049255400000000005
0.041442900000000005
0.0383911
0.0415649
0.0393066
0.0314941
0.0197144
0.00665283
0.00115967
0.00769043
0.023193400000000003
0.0370483
0.0435181
0.0443726
0.0372925
0.029541
0.0235596
0.023315400000000003
0.0274048
0.031616200000000004
0.0304565
0.0206299
0.00958252
0.00238037
-0.00115967
0.000488281
0.00604248
0.015686000000000002
0.022399900000000004
0.023193400000000003
0.024353
0.0199585
0.014099100000000003
0.0115967
0.0142822
0.0228882
0.0354004
0.0449829
0.0510254
0.053833000000000006
0.0473633
0.0324097
0.015930200000000002
0.00256348
0.00402832
0.0131226
0.0232544
0.0303955
0.0300903
0.0257568
0.0223389
0.0227051
0.0278931
0.0354004
0.043335000000000005
0.049255400000000005
0.0534058
0.049804699999999986
0.0391235
0.0281372
0.0215454
0.021667500000000003
0.0272217
0.0366211
0.0514526
0.0588989
0.0531006
0.0435181
0.0280151
0.0152588
0.0110474
0.0150757
0.0256958
0.0387573
0.0480347
0.0505371
0.045898400000000006
0.044067400000000014
0.0464478
0.046875
0.044799800000000015
0.0388184
0.032714799999999995
0.0348511
0.041442900000000005
0.0478516
0.0449829
0.0372925
0.0345459
0.0406494
0.0513916
0.0551147
0.049255400000000005
0.0402222
0.0334473
0.028198200000000007
0.0266113
0.0338135
0.0480957
0.0690308
0.086792
0.0856934
0.0715332
0.0509644
0.0296021
0.022949200000000003
0.0297241
0.039856
0.049682599999999986
0.0619507
0.072876
0.07531739999999999
0.0669556
0.050415
0.0355835
0.0270996
0.0275269
0.0353394
0.0534668
0.08007810000000001
0.101685
0.108276
0.0910645
0.0609741
0.033325199999999985
0.0251465
0.0388184
0.0599365
0.0686646
0.0639648
0.0534668
0.0481567
0.0506592
0.0547485
0.0580444
0.0613403
0.062561
0.0667725
0.0740967
0.0792847
0.0790405
0.0752563
0.0688477
0.0644531
0.06518550000000001
0.0701294
0.074585
0.07397460000000003
0.06964110000000001
0.0649414
0.05780030000000001
0.0532227
0.0599976
0.07269289999999999
0.0824585
0.08691410000000001
0.0872803
0.0784302
0.06964110000000001
0.0706787
0.078125
0.08404539999999999
0.08691410000000001
0.0864258
0.0797729
0.07244869999999999
0.0678711
0.06591799999999999
0.06414790000000001
0.05792240000000001
0.0467529
0.043457
0.053772
0.0684814
0.0723267
0.060546900000000015
0.036987300000000015
0.0136108
0.00274658
0.00317383
0.011779799999999998
0.0268555
0.0437012
0.057312
0.06842039999999999
0.0786133
0.0789795
0.0736694
0.06811519999999999
0.0657349
0.074646
0.088562
0.09729
0.0982666
0.08923339999999999
0.074585
0.0609741
0.0578613
0.0609741
0.0674438
0.0715332
0.07336430000000001
0.0717773
0.0559692
0.0230713
-0.014221200000000003
-0.0321045
-0.00195312
0.100464
0.265259
0.446533
0.5717770000000001
0.588074
0.491333
0.323364
0.161621
0.0559692
0.0209351
0.0396118
0.0793457
0.112061
0.128906
0.128723
0.118713
0.105042
0.0933228
0.08966060000000001
0.0899658
0.0935059
0.09790039999999997
0.100647
0.101257
0.0958252
0.086792
0.08172610000000001
0.0861206
0.0946045
0.0984497
0.0942383
0.08551030000000001
0.07470700000000001
0.0717163
0.0743408
0.07543949999999999
0.07208250000000001
0.06530760000000001
0.0651245
0.07403560000000001
0.0875854
0.102356
0.0980225
0.0827026
0.06427000000000001
0.0498657
0.0470581
0.0576172
0.07324220000000001
0.08416749999999999
0.0812378
0.0697021
0.0545654
0.0357666
0.019165
0.00982666
0.015930200000000002
0.0338135
0.0513916
0.0611572
0.0599976
0.052612300000000015
0.0438843
0.0409546
0.0474243
0.0534058
0.0532837
0.0463867
0.0346069
0.0236206
0.0194092
0.0234375
0.034668
0.0561523
0.0769043
0.0917969
0.104492
0.113464
0.122559
0.133179
0.14221199999999998
0.151489
0.15576199999999998
0.15387
0.152771
0.151978
0.154419
0.156799
0.154175
0.147217
0.141296
0.137268
0.130432
0.118713
0.106018
0.0990601
0.10321
0.119202
0.144775
0.16076700000000002
0.163574
0.154846
0.13983199999999998
0.12548800000000002
0.117493
0.116516
0.123291
0.132141
0.141602
0.151428
0.155945
0.15618900000000002
0.15173299999999998
0.140869
0.13208
0.12451199999999997
0.119141
0.119568
0.131287
0.15020799999999998
0.161072
0.161438
0.151062
0.138428
0.132507
0.131714
0.13684100000000002
0.141479
0.145508
0.151917
0.158936
0.163879
0.158691
0.147339
0.138184
0.13562000000000002
0.138428
0.140442
0.133484
0.122925
0.118469
0.124451
0.134277
0.140381
0.136169
0.122742
0.10571300000000003
0.0956421
0.0956421
0.0971069
0.0974731
0.102844
0.116333
0.132507
0.142395
0.138977
0.126099
0.108276
0.0961914
0.0966797
0.109985
0.125427
0.133972
0.1297
0.116516
0.0988159
0.0891724
0.0894165
0.0950928
0.105225
0.110657
0.110168
0.109131
0.114075
0.125305
0.130737
0.131714
0.129456
0.118347
0.105042
0.0946045
0.08966060000000001
0.0923462
0.101807
0.114807
0.117981
0.10736099999999997
0.0925903
0.0825806
0.0892944
0.109375
0.123352
0.123962
0.113281
0.104614
0.106079
0.11377
0.118652
0.116943
0.109192
0.100525
0.0985718
0.104736
0.110962
0.115051
0.118164
0.120544
0.119934
0.116455
0.110535
0.108948
0.111755
0.114441
0.113525
0.109802
0.104797
0.102783
0.103149
0.106323
0.109314
0.107727
0.102417
0.09729
0.0946655
0.0947266
0.0991211
0.10907
0.120605
0.128113
0.123596
0.11084
0.0993652
0.0941772
0.09790039999999997
0.109924
0.123718
0.123535
0.112793
0.101013
0.0913086
0.0882568
0.0924072
0.0968018
0.100891
0.109009
0.115051
0.115417
0.111145
0.104919
0.100891
0.0963745
0.0973511
0.106079
0.117188
0.123413
0.120667
0.110168
0.0925293
0.07855219999999999
0.0753784
0.0923462
0.118408
0.131958
0.132751
0.116455
0.0922852
0.07891849999999999
0.0786743
0.0858154
0.102173
0.120178
0.12579300000000002
0.123413
0.117065
0.106567
0.0996094
0.0968018
0.09790039999999997
0.101318
0.104675
0.109497
0.112427
0.107544
0.0985107
0.0914307
0.09008789999999997
0.0953979
0.103027
0.10907
0.110657
0.108765
0.105896
0.101135
0.093689
0.0873413
0.08227539999999997
0.0778809
0.0847168
0.102905
0.117676
0.12085
0.115479
0.107178
0.0982056
0.09198
0.08935549999999999
0.092041
0.0988159
0.109741
0.116577
0.113403
0.10437
0.0921021
0.08526610000000001
0.0853271
0.08874510000000001
0.08966060000000001
0.08813480000000001
0.08789060000000001
0.0933228
0.105408
0.116089
0.115845
0.105225
0.0842896
0.0623779
0.0477905
0.0473022
0.0565796
0.0692139
0.0794678
0.0834961
0.06854249999999999
0.0423584
0.0174561
0.00219727
0.0022583000000000004
0.016052200000000003
0.0454102
0.08117680000000001
0.106323
0.11377
0.10083
0.078186
0.06463619999999999
0.06164550000000001
0.0634766
0.06689450000000001
0.0706787
0.0780029
0.088562
0.0930786
0.0917358
0.08233639999999999
0.06726069999999999
0.05505369999999999
0.0472412
0.0462646
0.046936
0.0446777
0.0368042
0.0268555
0.031066900000000005
0.0767822
0.173218
0.310608
0.441833
0.5097659999999999
0.492737
0.397034
0.264893
0.151489
0.086853
0.06726069999999999
0.07440189999999999
0.0862427
0.0950317
0.10083
0.103882
0.0991821
0.0960693
0.0917969
0.09002689999999999
0.08782960000000001
0.08380130000000001
0.0846558
0.08886720000000001
0.0909424
0.0870972
0.0792236
0.06835939999999999
0.0583496
0.0553589
0.0548706
0.0581665
0.0609131
0.0626221
0.06591799999999999
0.07299800000000001
0.0786133
0.07714839999999999
0.0726318
0.062439
0.0528564
0.0441895
0.043457
0.0487671
0.0498657
0.0466919
0.0407715
0.0368042
0.041748
0.048584
0.0561523
0.0586548
0.0487061
0.0354004
0.0213013
0.0109863
0.0108643
0.0151367
0.016052200000000003
0.0175171
0.0196533
0.0217285
0.0186768
0.00878906
-0.000427246
-0.00952148
-0.0141602
-0.00909424
0.00537109
0.0246582
0.0372925
0.0406494
0.0365601
0.030761700000000006
0.0286865
0.0345459
0.0485229
0.06518550000000001
0.08081050000000001
0.0883789
0.08959960000000003
0.08691410000000001
0.0873413
0.090271
0.0983276
0.106323
0.107605
0.105225
0.108459
0.112244
0.116394
0.112
0.0958252
0.0766602
0.0603638
0.053772
0.0599976
0.0747681
0.0921631
0.108093
0.112366
0.104919
0.0871582
0.0656128
0.0490723
0.0454102
0.0557861
0.0695801
0.08416749999999999
0.0999756
0.111511
0.115601
0.109192
0.0939331
0.0807495
0.07250980000000001
0.06689450000000001
0.06835939999999999
0.0784302
0.0922241
0.1073
0.116943
0.110962
0.090332
0.06616210000000003
0.052673300000000006
0.0557861
0.0704346
0.0866699
0.0942993
0.0932617
0.0880127
0.0819092
0.07623289999999999
0.0741577
0.0748901
0.07373049999999999
0.0706787
0.0644531
0.0630493
0.0664062
0.0680542
0.06689450000000001
0.06311040000000001
0.0581665
0.0568237
0.059021
0.060546900000000015
0.0558472
0.0465088
0.0379639
0.034179699999999986
0.0358887
0.0385132
0.0358276
0.0354004
0.0391846
0.042175300000000006
0.0401611
0.035461400000000004
0.030761700000000006
0.027648900000000004
0.0314941
0.0403442
0.045043900000000005
0.0426025
0.0332642
0.0278931
0.0371704
0.0513306
0.060791
0.06213380000000001
0.053710900000000006
0.0442505
0.0334473
0.0254517
0.0195923
0.018981900000000003
0.0241699
0.032775900000000004
0.0422363
0.0473633
0.048584
0.0465088
0.045043900000000005
0.0422363
0.0379639
0.0320435
0.0285034
0.034179699999999986
0.045166000000000005
0.053955099999999985
0.0568237
0.0507812
0.0389404
0.0266113
0.0201416
0.0203857
0.0280762
0.0390625
0.046936
0.0504761
0.0498657
0.0445557
0.0365601
0.0323486
0.0325928
0.036132800000000014
0.0394287
0.0457764
0.0497437
0.0491943
0.0466309
0.0427246
0.0383301
0.0322876
0.0297241
0.0325928
0.0466919
0.0588989
0.0598755
0.0509644
0.0386353
0.029480000000000006
0.0274658
0.0332642
0.0470581
0.06665039999999997
0.08032230000000001
0.078186
0.0640259
0.0457764
0.0319824
0.0279541
0.032958999999999995
0.0443726
0.0560303
0.0614014
0.0586548
0.0500488
0.0368652
0.0278931
0.029785200000000005
0.039917
0.0544434
0.07073969999999999
0.0877686
0.0948486
0.08935549999999999
0.0735474
0.0485229
0.029480000000000006
0.0236206
0.0300293
0.0435181
0.059082
0.07098389999999999
0.07653810000000001
0.0736694
0.0680542
0.0591431
0.0513916
0.044067400000000014
0.0389404
0.041626
0.0541992
0.0706177
0.0856323
0.09198
0.07891849999999999
0.054992700000000005
0.0376587
0.036132800000000014
0.0488892
0.0617065
0.06616210000000003
0.062561
0.0586548
0.0584717
0.0614014
0.06555180000000001
0.06469730000000001
0.0593872
0.0551147
0.0561523
0.06604
0.07653810000000001
0.08105470000000001
0.0812378
0.07879639999999999
0.0743408
0.0701904
0.0714111
0.0674438
0.0599976
0.0493774
0.0408936
0.0459595
0.0594482
0.071167
0.0690308
0.0551758
0.0446777
0.0447388
0.052063
0.0623779
0.07098389999999999
0.07574460000000001
0.0766602
0.078186
0.08117680000000001
0.0824585
0.07910160000000001
0.0704346
0.0600586
0.0473633
0.043945300000000014
0.0562134
0.0723267
0.0769043
0.06927489999999999
0.0524902
0.0407104
0.043945300000000014
0.054992700000000005
0.0671997
0.0751343
0.07507319999999999
0.0714722
0.06518550000000001
0.0622559
0.06622310000000001
0.0733032
0.0749512
0.0700073
0.0717773
0.0797729
0.0883789
0.08874510000000001
0.08081050000000001
0.0637817
0.0480347
0.0474243
0.0570679
0.06463619999999999
0.0710449
0.07470700000000001
0.0755005
0.0776367
0.07910160000000001
0.0769043
0.0758057
0.0775146
0.0784912
0.08117680000000001
0.0808716
0.0768433
0.06555180000000001
0.0490112
0.039856
0.0435181
0.053955099999999985
0.0620728
0.0640869
0.0542603
0.0337524
0.0103149
-0.00292969
-0.00463867
0.00817871
0.022522
0.0374146
0.0466309
0.0523071
0.0608521
0.0697021
0.07470700000000001
0.07531739999999999
0.06835939999999999
0.056762699999999985
0.0500488
0.0518799
0.0557251
0.0592041
0.0640259
0.07226560000000001
0.0778809
0.07855219999999999
0.07324220000000001
0.0628052
0.0560303
0.0509033
0.0418091
0.0227661
-0.00158691
-0.0197144
0.00421143
0.0899658
0.226624
0.377502
0.48053
0.4987180000000001
0.424011
0.290344
0.15704300000000002
0.0649414
0.030334500000000007
0.0421143
0.06964110000000001
0.0930176
0.110107
0.118896
0.119507
0.114868
0.0993652
0.0794067
0.0643311
0.0657349
0.07714839999999999
0.08380130000000001
0.0829468
0.0772095
0.0700073
0.0673218
0.0637207
0.0582275
0.05780030000000001
0.0627441
0.0686035
0.07250980000000001
0.07519529999999999
0.0766602
0.0758057
0.071167
0.06750489999999999
0.06811519999999999
0.0704346
0.06463619999999999
0.053772
0.0426636
0.0342407
0.032226599999999994
0.0384521
0.0471802
0.049255400000000005
0.044799800000000015
0.0344849
0.0212402
0.014221200000000003
0.013183600000000002
0.0171509
0.023193400000000003
0.0316772
0.036987300000000015
0.0401001
0.0425415
0.0390015
0.0297241
0.017761199999999998
0.00665283
-0.00335693
-0.0123291
-0.017761199999999998
-0.0132446
-0.00457764
0.00445557
0.0055542000000000005
0.00231934
0.00250244
0.015441899999999996
0.0324707
0.0494385
0.060791
0.06579589999999999
0.071228
0.078125
0.0886841
0.101074
0.112305
0.11261
0.107666
0.10675
0.105652
0.107666
0.109375
0.105591
0.0913086
0.0786133
0.0742798
0.07916260000000001
0.0924072
0.103394
0.107971
0.110779
0.104492
0.0958252
0.0874023
0.0803833
0.0792236
0.0861206
0.0947266
0.103088
0.107666
0.100586
0.0888062
0.081665
0.0847168
0.0956421
0.108215
0.11303699999999997
0.113403
0.108948
0.100769
0.09741210000000003
0.0974731
0.0976562
0.100769
0.110352
0.115906
0.113708
0.104065
0.08935549999999999
0.08093260000000001
0.0859985
0.0990601
0.110229
0.113708
0.109741
0.104248
0.108765
0.116882
0.116882
0.10907
0.0953369
0.0905762
0.100586
0.108093
0.0996704
0.08026119999999999
0.0656738
0.06427000000000001
0.0726318
0.08227539999999997
0.0862427
0.0819702
0.0783691
0.0769043
0.07653810000000001
0.0755615
0.0767212
0.08551030000000001
0.100891
0.111816
0.106995
0.0861206
0.0626831
0.0581055
0.07226560000000001
0.0921631
0.105408
0.103882
0.0897827
0.072876
0.06701660000000001
0.0779419
0.0941772
0.102722
0.103943
0.0923462
0.0793457
0.07989500000000001
0.0891724
0.101013
0.107849
0.102051
0.0921021
0.086853
0.0932007
0.104309
0.111328
0.114136
0.108704
0.0952148
0.08105470000000001
0.07470700000000001
0.08343510000000001
0.0988159
0.108276
0.106628
0.102112
0.101196
0.102905
0.111633
0.113892
0.106445
0.0999146
0.09552
0.0912476
0.0899658
0.0906372
0.0924683
0.0994263
0.108459
0.113342
0.110107
0.106445
0.10614
0.109009
0.113281
0.118774
0.121826
0.117859
0.107605
0.0994873
0.0962524
0.101868
0.11499
0.124634
0.12579300000000002
0.115845
0.104858
0.0997314
0.101135
0.109192
0.111755
0.109192
0.115051
0.129028
0.14056400000000002
0.139221
0.125305
0.107788
0.0968628
0.100098
0.111633
0.124817
0.130371
0.126953
0.126099
0.121582
0.114258
0.107971
0.10553
0.10888699999999997
0.116577
0.124695
0.130859
0.135925
0.13763399999999998
0.13684100000000002
0.133484
0.12854000000000002
0.126221
0.126953
0.129089
0.134399
0.146301
0.153564
0.14917
0.13855
0.122681
0.103088
0.08660889999999999
0.076416
0.0740967
0.078125
0.08300779999999999
0.09002689999999999
0.090271
0.0844116
0.0793457
0.07653810000000001
0.0768433
0.08660889999999999
0.0987549
0.108826
0.114685
0.115662
0.114563
0.117126
0.123718
0.130554
0.130127
0.118896
0.104065
0.097168
0.10321
0.113647
0.125916
0.136963
0.137512
0.12506099999999998
0.108765
0.0910645
0.0772095
0.07098389999999999
0.0645142
0.0548706
0.0442505
0.0510254
0.105042
0.223145
0.388794
0.54187
0.622192
0.604675
0.497925
0.342773
0.203796
0.109924
0.0742798
0.08886720000000001
0.125
0.159058
0.172302
0.16278099999999998
0.145081
0.137512
0.143372
0.153809
0.15576199999999998
0.146606
0.137024
0.134888
0.138672
0.144775
0.146606
0.14294400000000002
0.139221
0.130432
0.122131
0.115479
0.110413
0.106323
0.10791
0.117188
0.1297
0.136536
0.137817
0.131897
0.115906
0.0991211
0.0917969
0.0975952
0.116089
0.14056400000000002
0.15332
0.148254
0.127136
0.0969849
0.07336430000000001
0.06329349999999999
0.0671997
0.0765991
0.083313
0.0831909
0.0788574
0.07373049999999999
0.06610110000000001
0.06658939999999999
0.067749
0.06164550000000001
0.0507812
0.040405300000000005
0.0360718
0.042175300000000006
0.0490112
0.0530396
0.0545654
0.0444336
0.0300293
0.022644
0.0256958
0.0391846
0.0640259
0.0929565
0.115234
0.124817
0.127625
0.12799100000000002
0.13531500000000002
0.154907
0.175598
0.189758
0.197083
0.196045
0.190613
0.178833
0.16534400000000002
0.16009500000000002
0.159973
0.155273
0.153748
0.152161
0.153564
0.15850799999999998
0.16534400000000002
0.169983
0.170715
0.16833499999999998
0.165222
0.16656500000000002
0.172485
0.184143
0.189453
0.183899
0.170044
0.152161
0.144043
0.148621
0.154297
0.155701
0.147522
0.14111300000000002
0.145508
0.158203
0.17157
0.17687999999999998
0.178345
0.178101
0.178467
0.183411
0.190247
0.190063
0.185364
0.176086
0.162842
0.15551800000000002
0.153381
0.153503
0.155396
0.156372
0.158447
0.161621
0.161621
0.166382
0.159729
0.147644
0.14013699999999998
0.138794
0.143127
0.146362
0.149658
0.151917
0.148376
0.14013699999999998
0.132751
0.130066
0.133423
0.143677
0.155029
0.151794
0.140991
0.125671
0.114197
0.111633
0.117615
0.126526
0.13458299999999998
0.138794
0.14263900000000002
0.144348
0.137878
0.129395
0.123169
0.116516
0.115112
0.125549
0.140198
0.149658
0.14819300000000002
0.138855
0.135193
0.138123
0.142822
0.140869
0.133179
0.122803
0.119202
0.120361
0.117432
0.113586
0.107056
0.102295
0.107849
0.119873
0.126953
0.127625
0.124451
0.122803
0.124451
0.124084
0.124817
0.130432
0.141968
0.154114
0.154602
0.144592
0.131165
0.127502
0.130554
0.12725799999999998
0.119263
0.105164
0.0958252
0.100891
0.108826
0.114319
0.118469
0.126526
0.137146
0.140198
0.13104200000000002
0.120117
0.11969
0.12793
0.138123
0.14593499999999998
0.147522
0.14209000000000002
0.132141
0.125
0.119812
0.115417
0.114075
0.109314
0.105774
0.103394
0.106262
0.108704
0.112427
0.114929
0.116699
0.116089
0.118042
0.12646500000000002
0.129639
0.12579300000000002
0.115723
0.103394
0.095459
0.0941772
0.0965576
0.0963745
0.0959473
0.0949097
0.0994263
0.109192
0.119751
0.124268
0.123291
0.1203
0.113892
0.10571300000000003
0.0993042
0.100403
0.10571300000000003
0.10968
0.106079
0.0897827
0.0675659
0.0521851
0.0477295
0.0504761
0.0582275
0.0612183
0.055419900000000015
0.049133300000000005
0.0490112
0.053772
0.0593872
0.0675659
0.07397460000000003
0.0823975
0.0922241
0.0961914
0.0874634
0.07098389999999999
0.0552368
0.0501099
0.0634766
0.0872192
0.104797
0.107117
0.100403
0.0912476
0.0830688
0.07891849999999999
0.0799561
0.0914917
0.102295
0.0992432
0.08862300000000001
0.07714839999999999
0.0710449
0.059082
0.0471802
0.0337524
0.0366821
0.093689
0.218872
0.383484
0.530518
0.5973510000000001
0.55188
0.412292
0.243774
0.109802
0.0418091
0.0410156
0.0755615
0.10791
0.121033
0.121399
0.117981
0.112244
0.102295
0.0910034
0.0834961
0.08697510000000001
0.09375
0.0978394
0.0973511
0.0952759
0.0922241
0.0924072
0.0939331
0.08862300000000001
0.079834
0.07135010000000001
0.06488039999999999
0.0620728
0.0688477
0.08251950000000001
0.08966060000000001
0.0925903
0.08489989999999999
0.069397
0.0598755
0.0621948
0.0645142
0.0587158
0.0508423
0.0443115
0.0455933
0.056762699999999985
0.069458
0.0762939
0.0736694
0.0599976
0.0444946
0.0384521
0.0388794
0.0463257
0.053710900000000006
0.0556641
0.0519409
0.0444336
0.0358887
0.0239868
0.015625
0.0145874
0.0183716
0.0232544
0.0262451
0.0203247
0.011779799999999998
0.013183600000000002
0.0234985
0.0360718
0.0452271
0.0490112
0.0563965
0.0663452
0.07226560000000001
0.07482910000000001
0.0784912
0.0845337
0.0970459
0.108826
0.118591
0.123474
0.123169
0.119629
0.115967
0.113831
0.113647
0.110352
0.105591
0.10321
0.102783
0.0992432
0.0979614
0.10083
0.105652
0.109192
0.111084
0.107971
0.102356
0.0965576
0.0905762
0.0864258
0.0841064
0.0870972
0.0935669
0.103821
0.110352
0.10583499999999997
0.0925293
0.0836182
0.0783081
0.0770264
0.08050539999999999
0.0872803
0.0967407
0.107849
0.113098
0.106567
0.0963135
0.0903931
0.0921021
0.104004
0.114319
0.116699
0.10583499999999997
0.0857544
0.0709229
0.0664062
0.07623289999999999
0.08966060000000001
0.097229
0.0982056
0.0932007
0.08923339999999999
0.08807369999999999
0.0910645
0.0929565
0.0912476
0.0874634
0.086853
0.08184810000000001
0.07324220000000001
0.0689697
0.0697021
0.0704956
0.06463619999999999
0.0545044
0.0458374
0.041748
0.0484009
0.055603
0.0571899
0.0545044
0.0466309
0.0402832
0.0402832
0.0425415
0.0436401
0.0455322
0.0487671
0.056640599999999985
0.0620117
0.0582886
0.0460205
0.0332642
0.0280151
0.0372925
0.0512085
0.0620117
0.0633545
0.0509033
0.0371704
0.0342407
0.038269
0.0463867
0.0494995
0.0426636
0.032775900000000004
0.0283203
0.0299072
0.032653800000000004
0.034179699999999986
0.0280762
0.0205688
0.0216064
0.0302734
0.0427246
0.0524902
0.0545044
0.0522461
0.0467529
0.0425415
0.0521851
0.0628662
0.0643921
0.0471802
0.0206299
-0.000549316
-0.00262451
0.0112915
0.0299072
0.0428467
0.0444946
0.037353500000000005
0.0248413
0.0201416
0.0299072
0.0454712
0.0593262
0.065979
0.0634155
0.0581665
0.0482788
0.0377808
0.0253906
0.00744629
-0.0032959000000000005
-0.000366211
0.0157471
0.033325199999999985
0.0438232
0.0423584
0.0346069
0.0271606
0.0254517
0.031189
0.041320800000000005
0.0560913
0.0669556
0.0671387
0.0596924
0.0455933
0.0306396
0.0167847
0.00927734
0.0128174
0.023193400000000003
0.0322876
0.0366211
0.0377808
0.034179699999999986
0.0349121
0.0392456
0.041748
0.0369263
0.0275269
0.0281372
0.0422363
0.0625
0.0762939
0.0679932
0.0394897
0.00976562
-0.00360107
0.00402832
0.0247192
0.0441284
0.0473633
0.0345459
0.023864700000000003
0.0221558
0.025817900000000005
0.0308228
0.0376587
0.0455322
0.050293
0.0476685
0.0393066
0.0297241
0.0257568
0.030334500000000007
0.0393066
0.0427246
0.0377197
0.0283813
0.0187378
0.0103149
0.010681200000000002
0.0129395
0.0180054
0.0258789
0.0352783
0.0432739
0.048217800000000005
0.0438232
0.0356445
0.022033700000000003
0.0136719
0.0227661
0.0405884
0.0502319
0.046936
0.0273438
0.009033200000000002
0.00128174
0.00469971
0.0183716
0.0377197
0.0488892
0.046875
0.036132800000000014
0.0210571
0.0142822
0.0183716
0.0211792
0.019104
0.0164185
0.0131226
0.0170898
0.028869599999999995
0.0360107
0.0358276
0.0281372
0.0209961
0.0184326
0.0204468
0.0237427
0.0314331
0.0424805
0.05242919999999999
0.0501099
0.0354004
0.0181274
0.00256348
-0.00463867
-0.00323486
0.00299072
0.012146
0.0236206
0.0299683
0.0252686
0.0177002
0.0110474
0.012085
0.0241699
0.0405273
0.049682599999999986
0.0448608
0.0339966
0.0246582
0.018066400000000003
0.016845699999999998
0.020813
0.026062
0.031066900000000005
0.0245972
0.0153809
0.00860596
0.00439453
0.00268555
0.00756836
0.0101929
0.0122681
0.0209351
0.035461400000000004
0.0488892
0.0568237
0.0552979
0.0410767
0.021667500000000003
0.0152588
0.015625
0.017028799999999997
0.016845699999999998
0.0136719
0.00598145
-0.00280762
-0.00830078
-0.00823975
-0.00152588
0.00323486
0.00354004
-0.00738525
-0.0296631
-0.0504761
-0.0565796
-0.049804699999999986
-0.0388794
-0.031311
-0.0275269
-0.020813
-0.00854492
-0.000427246
0.000610352
-0.00152588
-0.00317383
-0.00500488
-0.00616455
-0.004516600000000001
0.00183105
0.0112915
0.0174561
0.0159912
0.0106201
0.00335693
0.00311279
0.00177002
-0.00183105
-0.013916
-0.036377
-0.06671139999999999
-0.0940552
-0.098877
-0.0653687
0.0219116
0.166687
0.333252
0.450012
0.469788
0.376831
0.211609
0.0524902
-0.038147
-0.0484619
-0.00860596
0.0393677
0.0542603
0.0375366
0.00427246
-0.02771
-0.0407104
-0.0308228
-0.0105591
0.00634766
0.0134277
0.00537109
-0.00506592
-0.00793457
-0.00897217
-0.00842285
-0.00952148
-0.010376
-0.0108643
-0.0140381
-0.015197799999999997
-0.0157471
-0.015686000000000002
-0.0174561
-0.017761199999999998
-0.016235399999999997
-0.020874
-0.031189
-0.0419312
-0.0525513
-0.0546265
-0.0465088
-0.035522500000000005
-0.0252075
-0.0274658
-0.0370483
-0.0465088
-0.048584
-0.0444336
-0.0411987
-0.042175300000000006
-0.048645
-0.0523682
-0.049987800000000006
-0.044067400000000014
-0.0384521
-0.0426636
-0.0584106
-0.0794067
-0.0934448
-0.0932007
-0.0857544
-0.081665
-0.08184810000000001
-0.08178710000000003
-0.0753784
-0.07189939999999999
-0.06671139999999999
-0.0643311
-0.0639648
-0.0671997
-0.07250980000000001
-0.07635499999999999
-0.07073969999999999
-0.0542603
-0.0358276
-0.019165
-0.0115356
-0.00921631
-0.00891113
-0.00506592
-0.000305176
0.00708008
0.0178223
0.028869599999999995
0.0350342
0.0251465
0.00714111
-0.0120239
-0.0200195
-0.0119019
0.00140381
0.0114746
0.0120239
0.00299072
-0.0114136
-0.0251465
-0.031555200000000005
-0.0272827
-0.0201416
-0.0105591
-0.000427246
0.00195312
-0.00286865
-0.0100708
-0.0147095
-0.0128174
-0.004516600000000001
0.00402832
0.00567627
0.00238037
-0.0078125
-0.0192871
-0.0239868
-0.0205078
-0.0140381
-0.00982666
-0.0119629
-0.0151367
-0.016113299999999997
-0.0149536
-0.010498
-0.00872803
-0.00970459
-0.0078125
-0.000488281
0.00543213
0.00402832
-0.010681200000000002
-0.036438
-0.0531616
-0.0467529
-0.025634800000000003
-0.00726318
0.0010376
-0.00915527
-0.029480000000000006
-0.0460815
-0.0515137
-0.0455933
-0.0367432
-0.031005900000000006
-0.0244141
-0.0132446
-0.00317383
-0.00616455
-0.0239868
-0.053955099999999985
-0.08154299999999999
-0.0897217
-0.074585
-0.0493774
-0.0252075
-0.019043
-0.0344849
-0.0531006
-0.0601196
-0.0559692
-0.0481567
-0.0394897
-0.031311
-0.0280151
-0.0240479
-0.0202637
-0.023193400000000003
-0.0305176
-0.041442900000000005
-0.0510864
-0.0545044
-0.0525513
-0.0488281
-0.0428467
-0.0402222
-0.0386963
-0.036132800000000014
-0.0344849
-0.0280762
-0.0202026
-0.019104
-0.0272827
-0.0368042
-0.038269
-0.0308228
-0.018981900000000003
-0.00830078
-0.00482178
-0.00830078
-0.0175171
-0.0291748
-0.0415649
-0.0545044
-0.06323240000000001
-0.0639038
-0.0552368
-0.0447388
-0.0355835
-0.029785200000000005
-0.0269775
-0.021667500000000003
-0.0172729
-0.0162964
-0.015563999999999996
-0.0177002
-0.026123
-0.0351562
-0.0386963
-0.0338745
-0.0272217
-0.0213623
-0.0198975
-0.0183716
-0.016601599999999998
-0.013855
-0.017211900000000002
-0.0332642
-0.0474243
-0.059082
-0.0625
-0.0523071
-0.0374756
-0.0251465
-0.0177002
-0.016235399999999997
-0.0181274
-0.0214233
-0.0246582
-0.0255127
-0.0219116
-0.0115356
-0.00512695
-0.00415039
-0.0123291
-0.0305176
-0.049804699999999986
-0.0531006
-0.0410156
-0.0220947
-0.00634766
-0.00415039
-0.014099100000000003
-0.0332031
-0.0515137
-0.0546875
-0.0407715
-0.0197754
-0.00476074
-0.00189209
-0.005737300000000001
-0.0115967
-0.0171509
-0.020752
-0.0200195
-0.015563999999999996
-0.0144653
-0.0200195
-0.0316772
-0.0408325
-0.0413818
-0.0324097
-0.0187378
-0.0043335
-0.000183105
-0.00628662
-0.0183716
-0.0291748
-0.023864700000000003
-0.0101929
0.0007324219999999999
0.000671387
-0.0126953
-0.0250244
-0.0281372
-0.0222168
-0.0155029
-0.0174561
-0.0257568
-0.0286255
-0.026367200000000004
-0.0216064
-0.0150757
-0.00799561
-0.00170898
-0.000854492
-0.0101318
-0.0178223
-0.016967799999999998
-0.0112915
-0.0022583000000000004
0.00201416
0.00115967
-0.0012207
-0.0055542000000000005
-0.0126953
-0.0227051
-0.030334500000000007
-0.033630400000000005
-0.0300903
-0.0222778
-0.017761199999999998
-0.0192261
-0.023864700000000003
-0.0275879
-0.0246582
-0.013305700000000002
-0.000427246
0.00958252
0.0139771
0.00726318
-0.010376
-0.0214844
-0.022644
-0.0172729
-0.011718799999999998
-0.014526400000000004
-0.0279541
-0.0431519
-0.0541992
-0.0582886
-0.06048580000000001
-0.0629883
-0.0734863
-0.08496089999999999
-0.0862427
-0.081665
-0.071228
-0.06024169999999999
-0.0582886
-0.059509300000000015
-0.0610352
-0.0613403
-0.0582886
-0.0518188
-0.0454102
-0.0413818
-0.0350342
-0.030334500000000007
-0.0319824
-0.0379028
-0.0426636
-0.045043900000000005
-0.0435181
-0.038085900000000006
-0.0296631
-0.0201416
-0.0244751
-0.0428467
-0.067688
-0.0863037
-0.0944214
-0.102478
-0.117737
-0.128601
-0.108032
-0.0275269
0.108215
0.268677
0.391724
0.428467
0.367126
0.235291
0.0916748
-0.016113299999999997
-0.06964110000000001
-0.0747681
-0.0522461
-0.0270996
-0.0112915
-0.00378418
-0.00891113
-0.0224609
-0.0377808
-0.0500488
-0.053710900000000006
-0.044067400000000014
-0.0287476
-0.0218506
-0.022583
-0.026794400000000003
-0.0286865
-0.0296021
-0.0324097
-0.0411987
-0.0586548
-0.0762939
-0.0809937
-0.06988530000000001
-0.057251
-0.0533447
-0.0599365
-0.0669556
-0.0690308
-0.06024169999999999
-0.0519409
-0.0484009
-0.0517578
-0.0653687
-0.0790405
-0.07714839999999999
-0.06610110000000001
-0.0556641
-0.0546875
