CH5
0.00836182
0.00701904
0.00909424
0.00634766
0.00708008
0.00231934
0.00311279
-0.000610352
0.000244141
-0.00280762
0.000366211
-0.00250244
-0.00256348
-0.00518799
-0.00238037
-0.00384521
-0.00378418
-0.00390625
-0.00250244
-0.00366211
-0.00469971
-0.003479
-0.00268555
-0.000976562
-0.00128174
0.00219727
0.000793457
0.00256348
0.00012207
0.00213623
-0.000488281
0.00268555
0.000427246
0.0022583000000000004
-0.000427246
0.00286865
0.000793457
0.0010376
-0.0012207
0.00115967
-0.00115967
-0.00219727
-0.00250244
-0.000915527
-0.00164795
-0.0022583000000000004
-0.000183105
-0.000305176
-0.000549316
-0.00335693
-0.0022583000000000004
-0.00476074
-0.003479
-0.00531006
-0.00256348
-0.004516600000000001
-0.0007324219999999999
-0.00262451
-0.000793457
-0.00360107
-0.000427246
-0.00280762
-0.00244141
-0.00390625
-0.000549316
-0.00164795
-0.00177002
-0.00238037
-0.00158691
-0.00360107
-0.00579834
-0.00500488
-0.00561523
-0.00469971
-0.00592041
-0.00311279
-0.00494385
-0.0032959000000000005
-0.00543213
-0.00317383
-0.00561523
-0.00170898
-0.0032959000000000005
-0.00170898
-0.00488281
-0.00189209
-0.00439453
-0.00354004
-0.00463867
-0.00134277
-0.00250244
-0.00231934
-0.00158691
0.000549316
-0.000305176
-0.00195312
-0.00158691
-0.00317383
-0.0032959000000000005
-0.00537109
-0.00286865
-0.00421143
-0.00134277
-0.00305176
-0.000915527
-0.00445557
-0.00195312
-0.00531006
-0.00445557
-0.00762939
-0.00445557
-0.0067749
-0.00628662
-0.00787354
-0.00531006
-0.00726318
-0.00775146
-0.00689697
-0.00463867
-0.00488281
-0.00604248
-0.00439453
-0.00457764
-0.00354004
-0.00506592
-0.00262451
-0.00500488
-0.0032959000000000005
-0.00531006
-0.00268555
-0.00476074
-0.000488281
-0.00201416
-0.000366211
-0.003479
-0.000610352
-0.00366211
-0.00390625
-0.00531006
-0.0020752
-0.00292969
-0.00274658
-0.00219727
-0.00115967
-0.00231934
-0.00415039
-0.00323486
-0.00390625
-0.00378418
-0.00543213
-0.00305176
-0.00518799
-0.00292969
-0.00500488
-0.00311279
-0.00622559
-0.00354004
-0.00653076
-0.00543213
-0.00762939
-0.003479
-0.00469971
-0.00360107
-0.00482178
-0.0022583000000000004
-0.0043335
-0.0055542000000000005
-0.00561523
-0.00500488
-0.00549316
-0.00628662
-0.00390625
-0.00390625
-0.00268555
-0.00439453
-0.00213623
-0.00427246
-0.0022583000000000004
-0.00469971
-0.00299072
-0.00622559
-0.00317383
-0.00567627
-0.00482178
-0.00738525
-0.00341797
-0.00463867
-0.00341797
-0.00390625
-0.00115967
-0.00317383
-0.00445557
-0.00463867
-0.00354004
-0.00390625
-0.00482178
-0.00262451
-0.00354004
-0.00299072
-0.00488281
-0.00244141
-0.00488281
-0.00311279
-0.00585938
-0.00421143
-0.00689697
-0.00311279
-0.00476074
-0.00323486
-0.00518799
-0.00164795
-0.00360107
-0.00384521
-0.00604248
-0.00421143
-0.00610352
-0.00640869
-0.00500488
-0.0032959000000000005
-0.00366211
-0.00549316
-0.00445557
-0.005737300000000001
-0.00488281
-0.00671387
-0.00402832
-0.00549316
-0.00238037
-0.00384521
-0.00164795
-0.00439453
-0.00115967
-0.00354004
-0.00238037
-0.00445557
-0.000427246
-0.00158691
-0.000854492
-0.00189209
-6.10352e-05
-0.00244141
-0.00378418
-0.00323486
-0.00256348
-0.00299072
-0.00439453
-0.00231934
-0.00311279
-0.0022583000000000004
-0.00524902
-0.00415039
-0.00762939
-0.00549316
-0.00750732
-0.00518799
-0.00762939
-0.00408936
-0.00646973
-0.00512695
-0.00750732
-0.00384521
-0.005737300000000001
-0.00518799
-0.00585938
-0.0032959000000000005
-0.00457764
-0.00476074
-0.00341797
-0.0022583000000000004
-0.00262451
-0.00427246
-0.00256348
-0.003479
-0.0022583000000000004
-0.00408936
-0.00244141
-0.00561523
-0.00402832
-0.00695801
-0.00604248
-0.00933838
-0.00622559
-0.00823975
-0.00708008
-0.00921631
-0.00518799
-0.00744629
-0.00842285
-0.0101929
-0.00805664
-0.00854492
-0.00811768
-0.00683594
-0.00695801
-0.00860596
-0.00982666
-0.00640869
-0.00598145
-0.00439453
-0.00701904
-0.00537109
-0.00775146
-0.00469971
-0.00646973
-0.00421143
-0.00628662
-0.00170898
-0.00280762
-0.00140381
-0.00457764
-0.00262451
-0.00567627
-0.005737300000000001
-0.00561523
-0.00201416
-0.00177002
-0.00146484
-0.000244141
0.000366211
-0.000427246
-0.00268555
-0.000854492
-0.00177002
6.10352e-05
-0.00109863
0.00219727
-0.000244141
0.00189209
-0.0012207
-0.00012207
-0.00311279
0.000793457
-0.000488281
0.00140381
-0.000366211
0.00311279
0.0007324219999999999
0.000366211
-0.000976562
0.000671387
-0.000427246
-0.00115967
-6.10352e-05
6.10352e-05
-0.000366211
-0.00195312
-6.10352e-05
-0.00115967
0.000183105
-0.00152588
0.0007324219999999999
-0.00238037
-0.000488281
-0.00317383
-0.00128174
-0.003479
0.0012207
-0.000427246
0.000976562
-0.00152588
0.00152588
-0.000610352
-0.00128174
-0.00250244
-0.000671387
-0.0020752
-0.00280762
-0.00170898
-0.00134277
-0.00183105
-0.00415039
-0.00256348
-0.00427246
-0.00256348
-0.00421143
-0.00128174
-0.00341797
-0.000610352
-0.00286865
-0.000854492
-0.00335693
0.000488281
-0.00146484
0.00012207
-0.00158691
0.00189209
-0.000244141
6.10352e-05
-0.000366211
0.00231934
0.00146484
0.000671387
0.00170898
0.00164795
0.0012207
-0.000915527
0.000488281
-0.00152588
-0.000244141
-0.00170898
0.0012207
-0.0012207
0.00140381
-0.00115967
-6.10352e-05
-0.00317383
0.00012207
-0.00219727
-0.0012207
-0.0032959000000000005
-0.000366211
-0.00231934
-0.00213623
-0.00219727
0.000488281
-0.000549316
-0.00152588
-0.000488281
-0.000366211
-0.000610352
-0.00238037
-0.000366211
-0.00195312
-0.000854492
-0.00323486
-0.00152588
-0.00421143
-0.00128174
-0.00335693
-0.00146484
-0.00384521
-0.00012207
-0.00213623
-0.00140381
-0.00378418
-0.00128174
-0.00372314
-0.00354004
-0.00292969
-0.00012207
-0.000976562
-0.00219727
-0.00140381
-0.00201416
-0.00213623
-0.00372314
-0.00164795
-0.00323486
-0.00152588
-0.0032959000000000005
-0.000854492
-0.0032959000000000005
-0.00012207
-0.00231934
-0.000305176
-0.00262451
0.0010376
-0.00115967
-0.000610352
-0.00280762
-0.00012207
-0.00183105
-0.0020752
-0.00231934
-0.000671387
-0.00201416
-0.00317383
-0.0022583000000000004
-0.00250244
-0.00256348
-0.0043335
-0.0022583000000000004
-0.003479
-0.00140381
-0.00311279
-0.000854492
-0.00354004
-0.000854492
-0.00354004
-0.00195312
-0.00445557
-0.00012207
-0.00158691
-0.00012207
-0.00152588
0.00109863
-0.000793457
-0.00146484
-0.00183105
-6.10352e-05
-0.000915527
-0.00195312
-0.000427246
-0.000488281
0.0
-0.00128174
0.00170898
0.000854492
0.00335693
0.00158691
0.00390625
0.000915527
0.00372314
0.0010376
0.00195312
-0.00164795
0.000915527
-0.0022583000000000004
-0.00244141
-0.00506592
-0.00311279
-0.00531006
-0.00598145
-0.00622559
-0.00476074
-0.00622559
-0.00769043
-0.00646973
-0.00665283
-0.00640869
-0.00799561
-0.00561523
-0.00714111
-0.00506592
-0.00695801
-0.00457764
-0.00732422
-0.0043335
-0.0067749
-0.00506592
-0.00738525
-0.00280762
-0.00384521
-0.00280762
-0.00469971
-0.00244141
-0.00457764
-0.00469971
-0.00408936
-0.00164795
-0.00231934
-0.00341797
-0.00189209
-0.00195312
-0.00152588
-0.00360107
-0.00189209
-0.00396729
-0.00213623
-0.00402832
-0.00164795
-0.00402832
-0.000366211
-0.00189209
0.000183105
-0.0020752
0.00146484
-0.000915527
0.0
-0.00115967
0.00262451
0.00177002
0.00201416
0.00256348
0.00445557
0.00390625
0.00262451
0.00378418
0.00323486
0.003479
0.00183105
0.00402832
0.0020752
0.00378418
0.00152588
0.00390625
0.00146484
0.00500488
0.00262451
0.00366211
0.000610352
0.00372314
0.00128174
0.00195312
0.000976562
0.00390625
0.00219727
0.0020752
0.0022583000000000004
0.00378418
0.00250244
0.000610352
0.00164795
0.000793457
0.00152588
0.000427246
0.0032959000000000005
0.00128174
0.00341797
0.000976562
0.00274658
-0.000427246
0.00244141
-0.000244141
0.00109863
-0.0010376
0.00274658
0.00109863
0.00177002
0.0
0.00219727
0.0
-0.000549316
-0.000366211
0.000854492
6.10352e-05
-0.00158691
0.00012207
-0.000610352
0.000183105
-0.00177002
0.0
-0.00268555
-0.00146484
-0.00396729
-0.00189209
-0.00421143
-0.000305176
-0.00164795
0.000549316
-0.00115967
0.00274658
0.000671387
0.000976562
-0.000305176
0.00219727
0.000610352
-0.000244141
-0.00012207
0.000610352
-0.000305176
-0.00177002
-0.000549316
-0.00146484
-0.000854492
-0.00268555
-0.00012207
-0.00164795
0.00109863
-0.000854492
0.00146484
-0.00146484
0.00164795
-0.000915527
0.000305176
-0.00231934
0.00115967
-0.0012207
-0.000976562
-0.00262451
-0.000488281
-0.00280762
-0.00396729
-0.00372314
-0.00238037
-0.00268555
-0.00341797
-0.00134277
-0.0020752
-0.0012207
-0.00286865
0.00012207
-0.00140381
0.00164795
0.0
0.00195312
-0.00140381
0.0012207
-0.00170898
-0.000854492
-0.00354004
-0.000305176
-0.00238037
-0.0022583000000000004
-0.00354004
-0.00146484
-0.00390625
-0.00512695
-0.00482178
-0.00402832
-0.004516600000000001
-0.00579834
-0.003479
-0.00445557
-0.00408936
-0.00628662
-0.00445557
-0.00701904
-0.00463867
-0.00695801
-0.00463867
-0.00708008
-0.00317383
-0.00500488
-0.00384521
-0.00671387
-0.00366211
-0.00579834
-0.005737300000000001
-0.0067749
-0.00415039
-0.00537109
-0.00598145
-0.00531006
-0.00439453
-0.00537109
-0.00732422
-0.00579834
-0.00683594
-0.00561523
-0.00671387
-0.00390625
-0.00683594
-0.00494385
-0.00756836
-0.00500488
-0.00634766
-0.000854492
-0.00189209
-0.00115967
-0.00445557
-0.00201416
-0.00439453
-0.004516600000000001
-0.00531006
-0.000976562
-0.00219727
-0.00543213
-0.00872803
-0.010681200000000002
-0.012207
-0.0134888
-0.0111084
-0.012207
-0.012146
-0.0149536
-0.0134888
-0.015441899999999996
-0.0120239
-0.0136108
-0.011779799999999998
-0.014892600000000002
-0.0114746
-0.0137329
-0.0108032
-0.0100098
-0.00445557
-0.00421143
-0.00213623
-0.00250244
-0.00164795
-0.00476074
-0.00671387
-0.0067749
-0.00646973
-0.00683594
-0.00793457
-0.005737300000000001
-0.00634766
-0.00469971
-0.00634766
-0.00354004
-0.0055542000000000005
-0.00256348
-0.00439453
-0.00262451
-0.005737300000000001
-0.00286865
-0.00567627
-0.00512695
-0.00769043
-0.00439453
-0.00585938
-0.00512695
-0.00549316
-0.00335693
-0.00524902
-0.00634766
-0.00518799
-0.00384521
-0.00366211
-0.00561523
-0.00445557
-0.0067749
-0.00598145
-0.00775146
-0.00482178
-0.00732422
-0.00482178
-0.00744629
-0.00579834
-0.00878906
-0.00518799
-0.00769043
-0.00695801
-0.00921631
-0.005737300000000001
-0.00750732
-0.00756836
-0.00848389
-0.00653076
-0.00811768
-0.00860596
-0.00671387
-0.0055542000000000005
-0.00543213
-0.00665283
-0.004516600000000001
-0.00610352
-0.00469971
-0.00653076
-0.00378418
-0.00598145
-0.00280762
-0.00500488
-0.00360107
-0.00646973
-0.00317383
-0.00628662
-0.00616455
-0.00897217
-0.00592041
-0.00701904
-0.00622559
-0.00640869
-0.004516600000000001
-0.00585938
-0.00701904
-0.005737300000000001
-0.00506592
-0.00518799
-0.00683594
-0.00518799
-0.00689697
-0.0055542000000000005
-0.00732422
-0.00415039
-0.00579834
-0.00201416
-0.00378418
-0.00256348
-0.00653076
-0.00421143
-0.00708008
-0.00579834
-0.00732422
-0.00335693
-0.00469971
-0.0043335
-0.00463867
-0.00286865
-0.0043335
-0.00561523
-0.00445557
-0.00354004
-0.00292969
-0.00384521
-0.00140381
-0.00268555
-0.000915527
-0.00268555
-0.00012207
-0.00189209
0.0010376
-0.00134277
0.00012207
-0.00256348
0.00134277
-6.10352e-05
0.00140381
6.10352e-05
0.00366211
0.00183105
0.00164795
0.00115967
0.00274658
0.00158691
0.000854492
0.00195312
0.00219727
0.00195312
6.10352e-05
0.00213623
0.0007324219999999999
0.00244141
0.0007324219999999999
0.00305176
6.10352e-05
0.00219727
-0.000549316
0.000854492
-0.00134277
0.00292969
0.00146484
0.00262451
0.000488281
0.00311279
0.000915527
0.000488281
0.000671387
0.00305176
0.00256348
0.00183105
0.00372314
0.00421143
0.00518799
0.00445557
0.00720215
0.00567627
0.00653076
0.00341797
0.00445557
0.000549316
0.00286865
-0.000427246
0.00012207
-0.00335693
-0.000366211
-0.00292969
-0.00262451
-0.00506592
-0.00280762
-0.00500488
-0.00549316
-0.00543213
-0.00323486
-0.00354004
-0.00384521
-0.0022583000000000004
-0.00213623
-0.00195312
-0.00335693
-0.000671387
-0.00183105
0.000244141
-0.00170898
0.000366211
-0.00250244
0.000366211
-0.0022583000000000004
-0.0007324219999999999
-0.003479
0.00012207
-0.00183105
-0.00158691
-0.00390625
-0.00134277
-0.00317383
-0.00305176
-0.00238037
-0.00012207
-0.00134277
-0.00305176
-0.00238037
-0.00274658
-0.0020752
-0.00256348
0.000183105
-0.00164795
-6.10352e-05
-0.00286865
-0.000976562
-0.00366211
-0.000244141
-0.00256348
-0.000915527
-0.00378418
-0.000549316
-0.00305176
-0.00292969
-0.00469971
-0.00177002
-0.00311279
-0.00323486
-0.00311279
-0.00183105
-0.00323486
-0.00500488
-0.00384521
-0.00439453
-0.00421143
-0.00610352
-0.00408936
-0.00616455
-0.0043335
-0.00616455
-0.003479
-0.00579834
-0.00238037
-0.004516600000000001
-0.00311279
-0.00604248
-0.00256348
-0.00445557
-0.00354004
-0.00445557
-0.000915527
-0.0022583000000000004
-0.00274658
-0.00292969
-0.00201416
-0.00317383
-0.00402832
-0.00219727
-0.00195312
-0.00128174
-0.003479
-0.00146484
-0.00311279
-0.000610352
-0.00244141
-0.000793457
-0.00469971
-0.00244141
-0.0055542000000000005
-0.00439453
-0.00714111
-0.00366211
-0.00543213
-0.00476074
-0.00628662
-0.003479
-0.00518799
-0.00592041
-0.00622559
-0.00512695
-0.00610352
-0.00708008
-0.00482178
-0.00427246
-0.00268555
-0.00408936
-0.0020752
-0.00457764
-0.00238037
-0.00378418
-0.000854492
-0.00299072
0.000915527
-0.00115967
-0.000366211
-0.00384521
-0.000610352
-0.00305176
-0.00274658
-0.00378418
-0.0007324219999999999
-0.00195312
-0.0022583000000000004
-0.00183105
-0.000793457
-0.000915527
-0.00201416
0.000610352
0.00115967
0.00231934
-0.000549316
0.000427246
-0.00311279
-0.0010376
-0.00274658
-0.000610352
-0.00457764
-0.00250244
-0.00579834
-0.00469971
-0.00683594
-0.00231934
-0.00378418
-0.00317383
-0.00488281
-0.00268555
-0.00476074
-0.00537109
-0.00500488
-0.0032959000000000005
-0.00311279
-0.003479
-0.0012207
-0.00164795
-0.000671387
-0.00238037
-0.00012207
-0.00244141
0.000488281
-0.00128174
0.000427246
-0.00317383
-0.000305176
-0.00317383
-0.00170898
-0.00372314
0.000366211
-0.0012207
-0.0010376
-0.00280762
-0.00115967
-0.00323486
-0.00378418
-0.00317383
-0.00195312
-0.0022583000000000004
-0.00354004
-0.00219727
-0.00354004
-0.00305176
-0.00537109
-0.00341797
-0.00628662
-0.00415039
-0.00634766
-0.00372314
-0.00622559
-0.00195312
-0.00408936
-0.00250244
-0.00457764
-0.000549316
-0.00213623
-0.00164795
-0.00311279
-0.00109863
-0.003479
-0.00512695
-0.00531006
-0.00445557
-0.00421143
-0.00427246
-0.00195312
-0.00317383
-0.003479
-0.00714111
-0.00598145
-0.00817871
-0.00415039
-0.00463867
-0.00152588
-0.00427246
-0.000976562
-0.00341797
-0.00195312
-0.00378418
0.00012207
-0.00201416
-0.00299072
-0.0055542000000000005
-0.0043335
-0.00579834
-0.00604248
-0.0043335
-0.00262451
-0.00274658
-0.00427246
-0.00262451
-0.00390625
-0.00280762
-0.00463867
-0.00238037
-0.00506592
-0.0020752
-0.00408936
-0.00189209
-0.004516600000000001
-0.00115967
-0.003479
-0.00256348
-0.00476074
-0.00128174
-0.00341797
-0.00360107
-0.00512695
-0.00305176
-0.00469971
-0.0055542000000000005
-0.00476074
-0.00384521
-0.00341797
-0.004516600000000001
-0.00238037
-0.003479
-0.00231934
-0.00408936
-0.00189209
-0.00421143
-0.00134277
-0.00335693
-0.00115967
-0.00378418
-0.000427246
-0.00317383
-0.00213623
-0.004516600000000001
-0.000854492
-0.00268555
-0.00305176
-0.00457764
-0.00219727
-0.00311279
-0.00274658
-0.0012207
-0.000610352
-0.00140381
-0.003479
-0.00201416
-0.00335693
-0.00219727
-0.00439453
-0.00231934
-0.00482178
-0.00177002
-0.00360107
-0.00170898
-0.00506592
-0.00183105
-0.00402832
-0.00268555
-0.00445557
-0.0010376
-0.00323486
-0.00341797
-0.0043335
-0.00213623
-0.0032959000000000005
-0.00476074
-0.0043335
-0.00439453
-0.00457764
-0.00653076
-0.00439453
-0.00543213
-0.0032959000000000005
-0.00463867
-0.00183105
-0.00457764
-0.00219727
-0.00512695
-0.00311279
-0.00561523
-0.00152588
-0.00323486
-0.00201416
-0.0043335
-0.00140381
-0.00360107
-0.00378418
-0.00463867
-0.00238037
-0.00317383
-0.00366211
-0.0022583000000000004
-0.00164795
-0.00170898
-0.00360107
-0.0020752
-0.00390625
-0.00268555
-0.00427246
-0.0012207
-0.00286865
0.000549316
-0.00170898
-0.000610352
-0.00469971
-0.00152588
-0.00335693
-0.00158691
-0.00274658
0.0007324219999999999
-0.00177002
-0.0032959000000000005
-0.00524902
-0.00408936
-0.00518799
-0.00469971
-0.00238037
-0.000915527
-0.000854492
-0.00317383
-0.00250244
-0.00543213
-0.00561523
-0.009033200000000002
-0.00726318
-0.00921631
-0.00372314
-0.00286865
0.00170898
-0.000183105
0.00256348
-0.00177002
-0.00323486
-0.00653076
-0.00408936
-0.00592041
-0.0055542000000000005
-0.00549316
-0.00274658
-0.00268555
-0.00177002
0.00146484
0.00311279
0.00341797
0.000366211
-0.000183105
-0.004516600000000001
-0.00469971
-0.00738525
-0.00445557
-0.00561523
-0.0007324219999999999
-0.00146484
0.000793457
-0.0022583000000000004
0.000610352
-0.00256348
-0.00244141
-0.00476074
-0.00164795
-0.00305176
-0.00250244
-0.00189209
0.000488281
-0.0007324219999999999
-0.00256348
-0.00238037
-0.00292969
-0.00262451
-0.00384521
-0.00115967
-0.00262451
-0.000610352
-0.00274658
-0.000366211
-0.00335693
-0.000183105
-0.00250244
-0.000488281
-0.00311279
0.0010376
-0.000793457
0.00012207
-0.00140381
0.00146484
-0.000427246
-0.00115967
-0.00195312
-0.0007324219999999999
-0.00170898
-0.00231934
-0.000244141
0.000366211
0.0012207
0.000488281
0.00366211
0.0022583000000000004
0.00323486
-0.0012207
-0.00183105
-0.00683594
-0.00445557
-0.00695801
-0.00585938
-0.0100708
-0.00762939
-0.0107422
-0.0108643
-0.0132446
-0.010376
-0.0119629
-0.0118408
-0.0115356
-0.00994873
-0.0110474
-0.0114746
-0.00836182
-0.00714111
-0.005737300000000001
-0.0078125
-0.00610352
-0.00860596
-0.00640869
-0.00830078
-0.00604248
-0.00915527
-0.00604248
-0.00866699
-0.0067749
-0.0088501
-0.00488281
-0.00665283
-0.00561523
-0.00720215
-0.00360107
-0.00421143
-0.00299072
-0.00146484
0.00146484
0.0007324219999999999
-0.00128174
-0.000549316
-0.000305176
0.00177002
0.0020752
0.00592041
0.00469971
0.00714111
0.00488281
0.00714111
0.00341797
0.00592041
0.00268555
0.00396729
0.00152588
0.00524902
0.00305176
0.00286865
0.000305176
0.00183105
-0.00115967
-0.00250244
-0.00335693
-0.00274658
-0.00378418
-0.00518799
-0.00372314
-0.00372314
-0.00256348
-0.003479
-0.000488281
-0.00244141
-0.000305176
-0.00280762
-0.00152588
-0.00488281
-0.00158691
-0.00317383
-0.000915527
-0.00274658
0.00128174
-0.000671387
0.000183105
-0.000915527
0.00238037
0.000854492
0.000305176
0.000244141
0.00146484
0.000854492
-0.000183105
0.0012207
0.000549316
0.0010376
-0.000915527
0.000854492
-0.00177002
-0.000183105
-0.00292969
-0.000854492
-0.003479
0.000305176
-0.00189209
-0.000793457
-0.00390625
-0.000610352
-0.00299072
-0.00244141
-0.0032959000000000005
-0.000183105
-0.0012207
-0.00152588
-0.00140381
-0.000671387
-0.00170898
-0.00311279
-0.00152588
-0.00219727
-0.00177002
-0.00354004
-0.00140381
-0.00415039
-0.00219727
-0.00476074
-0.00256348
-0.00488281
-0.000366211
-0.00213623
-0.000793457
-0.00390625
-0.00115967
-0.003479
-0.00317383
-0.00427246
-0.0012207
-0.00256348
-0.00317383
-0.00274658
-0.00177002
-0.00256348
-0.00384521
-0.00183105
-0.00195312
-0.00012207
-0.00128174
0.00164795
-0.000976562
0.000854492
-0.00280762
-0.00170898
-0.00524902
-0.00213623
-0.00408936
-0.00262451
-0.00476074
-0.000976562
-0.00280762
-0.00219727
-0.00372314
-0.00189209
-0.00415039
-0.00531006
-0.00463867
-0.00274658
-0.00213623
-0.00268555
-0.0007324219999999999
-0.00158691
-0.000610352
-0.00213623
0.0007324219999999999
-0.00109863
0.00152588
-0.00115967
0.000427246
-0.00286865
0.0007324219999999999
-0.00128174
0.000183105
-0.00195312
0.00152588
-0.000427246
-0.000488281
-0.0020752
-0.000244141
-0.0022583000000000004
-0.003479
-0.00354004
-0.00390625
-0.00500488
-0.00653076
-0.0043335
-0.00500488
-0.00366211
-0.00561523
-0.00323486
-0.00592041
-0.00360107
-0.00622559
-0.004516600000000001
-0.00750732
-0.00372314
-0.00543213
-0.00390625
-0.00628662
-0.00286865
-0.00482178
-0.00421143
-0.00463867
-0.00183105
-0.00299072
-0.00378418
-0.00354004
-0.00317383
-0.003479
-0.00506592
-0.00268555
-0.00354004
-0.00213623
-0.00341797
-0.000305176
-0.00170898
0.00164795
-0.000305176
0.00158691
-0.00177002
0.00177002
-0.0007324219999999999
-0.00012207
-0.00323486
-0.000610352
-0.00292969
-0.00256348
-0.00286865
6.10352e-05
-0.00109863
-0.00213623
-0.00170898
-0.00128174
-0.00134277
-0.00244141
-0.000366211
-0.00164795
-0.000610352
-0.0022583000000000004
0.000793457
-0.000671387
0.00250244
0.00012207
0.00177002
-0.00128174
0.00244141
0.000488281
0.00140381
-0.00170898
0.000976562
-0.00146484
-0.00140381
-0.00183105
0.0010376
0.000305176
-6.10352e-05
0.00140381
0.0020752
0.0022583000000000004
0.000610352
0.00280762
0.00164795
0.00335693
0.00140381
0.00341797
0.000427246
0.00317383
0.0012207
0.003479
0.000488281
0.00390625
0.0012207
0.00189209
-0.000427246
0.00268555
0.000793457
0.000549316
-0.000488281
0.00109863
-0.000549316
-0.00170898
-0.000549316
0.000427246
0.00140381
0.000244141
0.00238037
0.000915527
0.00170898
-0.000793457
0.0012207
-0.00152588
0.00152588
-0.000610352
0.00109863
-0.00238037
0.000610352
-0.00201416
-0.00140381
-0.00335693
0.000244141
-0.000793457
-6.10352e-05
-0.000244141
0.00201416
0.000915527
0.0
0.000976562
0.00134277
0.00128174
-0.000915527
0.000610352
-0.00128174
-0.000427246
-0.00292969
-0.00109863
-0.00372314
-0.000427246
-0.00170898
0.000671387
-0.00201416
0.00152588
-0.000549316
0.00115967
-0.00012207
0.00341797
0.00134277
0.000244141
-0.00128174
0.0
-0.00164795
-0.00354004
-0.00323486
-0.003479
-0.00360107
-0.00524902
-0.00335693
-0.00549316
-0.0043335
-0.00616455
-0.00311279
-0.00482178
-0.0012207
-0.0032959000000000005
-0.00140381
-0.00445557
-0.0010376
-0.00415039
-0.00439453
-0.00714111
-0.00408936
-0.00561523
-0.0055542000000000005
-0.00567627
-0.00354004
-0.0043335
-0.00524902
-0.00427246
-0.00469971
-0.00500488
-0.00671387
-0.00427246
-0.0055542000000000005
-0.00384521
-0.00701904
-0.00604248
-0.010437
-0.00872803
-0.0113525
-0.00897217
-0.0105591
-0.00537109
-0.00610352
-0.00463867
-0.00646973
-0.00335693
-0.00512695
-0.00512695
-0.00549316
-0.00396729
-0.00549316
-0.00732422
-0.00585938
-0.00561523
-0.00463867
-0.00561523
-0.00335693
-0.00579834
-0.00512695
-0.00848389
-0.00683594
-0.00970459
-0.00622559
-0.00830078
-0.0067749
-0.00982666
-0.00604248
-0.00756836
-0.00585938
-0.00744629
-0.00408936
-0.00579834
-0.00622559
-0.00628662
-0.00402832
-0.004516600000000001
-0.00524902
-0.00445557
-0.00543213
-0.00634766
-0.00909424
-0.00732422
-0.0088501
-0.00640869
-0.00823975
-0.00634766
-0.0102539
-0.00830078
-0.012207
-0.011657700000000002
-0.0155029
-0.0133667
-0.017394999999999997
-0.0187378
-0.0224609
-0.0205078
-0.0218506
-0.0211792
-0.0197754
-0.017028799999999997
-0.0185547
-0.0205078
-0.0197754
-0.0185547
-0.015930200000000002
-0.0171509
-0.016479499999999998
-0.0205688
-0.0205078
-0.024108900000000003
-0.0217896
-0.0234375
-0.0188599
-0.0181885
-0.00921631
-0.00158691
0.0109863
0.012085
0.0067749
-0.00537109
-0.0120239
-0.0183105
-0.0183716
-0.0150757
-0.00946045
-0.00775146
-0.00897217
-0.0106201
-0.0147705
-0.0178833
-0.0213013
-0.019043
-0.0198364
-0.0169067
-0.0194702
-0.019043
-0.0239258
-0.0221558
-0.0258789
-0.0252075
-0.0285645
-0.0255737
-0.0280762
-0.0280762
-0.029785200000000005
-0.0256958
-0.0256958
-0.024353
-0.0222778
-0.0180054
-0.0153809
-0.0125732
-0.00708008
-0.00445557
-0.00274658
-0.00494385
-0.00457764
-0.00842285
-0.00744629
-0.010376
-0.00848389
-0.0109253
-0.00762939
-0.0100708
-0.00921631
-0.0125122
-0.00915527
-0.0112305
-0.0112915
-0.0136719
-0.0112305
-0.013305700000000002
-0.0143433
-0.0146484
-0.0133667
-0.0141602
-0.015625
-0.0143433
-0.0149536
-0.0139771
-0.0161743
-0.0144043
-0.0169067
-0.014892600000000002
-0.0171509
-0.0144043
-0.015686000000000002
-0.00982666
-0.00939941
-0.00604248
-0.00805664
-0.0043335
-0.0067749
-0.00683594
-0.0088501
-0.005737300000000001
-0.00738525
-0.00787354
-0.00769043
-0.00598145
-0.00543213
-0.0055542000000000005
-0.00311279
-0.00274658
-0.00134277
-0.00280762
-0.00012207
-0.00146484
0.00219727
0.00164795
0.00518799
0.00384521
0.00946045
0.00952148
0.013305700000000002
0.0131226
0.0192871
0.0201416
0.024108900000000003
0.0266113
0.0339355
0.0366821
0.0394287
0.0418091
0.0444946
0.0454102
0.0455933
0.0490723
0.0510864
0.0553589
0.0571289
0.0622559
0.0623169
0.0669556
0.06658939999999999
0.0704346
0.069397
0.07482910000000001
0.07446289999999997
0.0776367
0.07708739999999999
0.08288569999999999
0.08300779999999999
0.0853882
0.0858765
0.0908203
0.0917969
0.0935059
0.0958252
0.0982056
0.0980225
0.0961914
0.0964355
0.0935059
0.0917358
0.0856323
0.0814819
0.071228
0.0644531
0.0529785
0.0471802
0.0374756
0.0348511
0.026367200000000004
0.0213623
0.0126953
0.0107422
0.00341797
0.0
-0.00384521
-0.00231934
-0.00378418
-0.00396729
-0.00256348
0.0
0.00201416
0.00311279
0.00750732
0.00897217
0.011779799999999998
0.010498
0.012085
0.00854492
0.0101318
0.0067749
0.00805664
0.00463867
0.00805664
0.00463867
0.00421143
-0.000671387
0.000305176
-0.0043335
-0.00640869
-0.00946045
-0.00775146
-0.00952148
-0.0102539
-0.00976562
-0.00872803
-0.00878906
-0.00939941
-0.00695801
-0.00695801
-0.00500488
-0.006591800000000001
-0.00457764
-0.00750732
-0.00457764
-0.00671387
-0.00402832
-0.00640869
-0.00170898
-0.00311279
-0.00164795
-0.00390625
-0.000549316
-0.00292969
-0.00250244
-0.00280762
0.000793457
0.000610352
0.0007324219999999999
0.00183105
0.00280762
0.00274658
0.00177002
0.00402832
0.00372314
0.00579834
0.00408936
0.00610352
0.00299072
0.00518799
0.00244141
0.00415039
0.0010376
0.00476074
0.00201416
0.00244141
-0.00115967
0.00140381
-0.00152588
-0.00195312
-0.00341797
-0.0012207
-0.00244141
-0.00317383
-0.00286865
-0.00274658
-0.00341797
-0.00537109
-0.00378418
-0.00506592
-0.00384521
-0.00622559
-0.00372314
-0.00512695
-0.000671387
-0.00158691
0.00109863
-0.00262451
-0.00012207
-0.00354004
-0.00323486
-0.00616455
-0.00250244
-0.00402832
-0.00354004
-0.00457764
-0.00213623
-0.00311279
-0.00408936
-0.00384521
-0.00402832
-0.00482178
-0.00665283
-0.00488281
-0.0055542000000000005
-0.0032959000000000005
-0.00457764
-0.00250244
-0.00567627
-0.00341797
-0.00610352
-0.00421143
-0.00708008
-0.00305176
-0.00512695
-0.00396729
-0.00616455
-0.00201416
-0.00323486
-0.00268555
-0.00360107
-0.00177002
-0.00378418
-0.00518799
-0.00469971
-0.00378418
-0.00341797
-0.00457764
-0.00305176
-0.00476074
-0.003479
-0.00537109
-0.00292969
-0.00549316
-0.00256348
-0.00506592
-0.00335693
-0.0067749
-0.00305176
-0.00500488
-0.00384521
-0.00640869
-0.00335693
-0.00549316
-0.00567627
-0.00653076
-0.00378418
-0.004516600000000001
-0.00512695
-0.00445557
-0.00457764
-0.00537109
-0.00793457
-0.00634766
-0.00769043
-0.00537109
-0.00683594
-0.00445557
-0.00738525
-0.00457764
-0.00701904
-0.00469971
-0.00671387
-0.0020752
-0.00354004
-0.00274658
-0.00592041
-0.00360107
-0.00610352
-0.00640869
-0.00750732
-0.00500488
-0.00585938
-0.0067749
-0.00579834
-0.0055542000000000005
-0.00524902
-0.00646973
-0.00390625
-0.00488281
-0.00286865
-0.00500488
-0.00268555
-0.00549316
-0.00213623
-0.0043335
-0.00238037
-0.00549316
-0.00128174
-0.00292969
-0.00219727
-0.00445557
-0.00146484
-0.00341797
-0.00378418
-0.00488281
-0.00305176
-0.00427246
-0.00524902
-0.00366211
-0.00250244
-0.00140381
-0.00256348
-0.000793457
-0.00317383
-0.00213623
-0.00476074
-0.00286865
-0.00622559
-0.00299072
-0.00524902
-0.0032959000000000005
-0.006591800000000001
-0.00280762
-0.00500488
-0.00402832
-0.00622559
-0.00274658
-0.00463867
-0.00457764
-0.00488281
-0.0020752
-0.00244141
-0.00335693
-0.00280762
-0.00335693
-0.00384521
-0.00610352
-0.00421143
-0.00549316
-0.00305176
-0.00427246
-0.00195312
-0.00512695
-0.00238037
-0.00506592
-0.00341797
-0.00634766
-0.00189209
-0.00384521
-0.00244141
-0.00366211
0.00012207
-0.0012207
-0.00140381
-0.00292969
-0.00195312
-0.00341797
-0.00457764
-0.00335693
-0.00317383
-0.00286865
-0.00463867
-0.00219727
-0.00341797
-0.000488281
-0.00213623
0.000366211
-0.00256348
0.0
-0.00323486
-0.0022583000000000004
-0.00537109
-0.00146484
-0.00286865
-0.00164795
-0.00402832
-0.00128174
-0.003479
-0.0043335
-0.00482178
-0.00299072
-0.00354004
-0.00427246
-0.00305176
-0.00262451
-0.00183105
-0.00323486
-0.0010376
-0.00286865
-0.00146484
-0.00439453
-0.00311279
-0.00665283
-0.0032959000000000005
-0.00531006
-0.00305176
-0.00561523
-0.00219727
-0.0043335
-0.00390625
-0.00610352
-0.00292969
-0.0043335
-0.00469971
-0.00488281
-0.00274658
-0.00305176
-0.00408936
-0.00299072
-0.003479
-0.00354004
-0.00579834
-0.00408936
-0.00592041
-0.00354004
-0.00567627
-0.0032959000000000005
-0.0067749
-0.00366211
-0.00628662
-0.00476074
-0.00750732
-0.00341797
-0.00512695
-0.00384521
-0.00561523
-0.00250244
-0.00415039
-0.00463867
-0.00531006
-0.00366211
-0.00439453
-0.00585938
-0.00445557
-0.00457764
-0.00317383
-0.00476074
-0.00280762
-0.005737300000000001
-0.00408936
-0.00646973
-0.00372314
-0.00579834
-0.00152588
-0.00366211
-0.00201416
-0.00500488
-0.000854492
-0.00244141
-0.00152588
-0.003479
-0.00109863
-0.003479
-0.00463867
-0.00518799
-0.00372314
-0.00415039
-0.00500488
-0.00341797
-0.00384521
-0.00341797
-0.00543213
-0.00317383
-0.004516600000000001
-0.00115967
-0.00244141
-0.000183105
-0.00360107
-0.000854492
-0.00366211
-0.00292969
-0.00634766
-0.00286865
-0.00506592
-0.00494385
-0.00689697
-0.00408936
-0.00610352
-0.00683594
-0.00683594
-0.00500488
-0.00506592
-0.00567627
-0.0043335
-0.00549316
-0.00579834
-0.00866699
-0.00726318
-0.00958252
-0.00665283
-0.00830078
-0.005737300000000001
-0.0088501
-0.00549316
-0.00775146
-0.00616455
-0.00848389
-0.00408936
-0.00561523
-0.00482178
-0.0067749
-0.00415039
-0.00579834
-0.00665283
-0.00646973
-0.00415039
-0.00402832
-0.004516600000000001
-0.00268555
-0.003479
-0.00305176
-0.00537109
-0.00335693
-0.00585938
-0.0032959000000000005
-0.00518799
-0.00274658
-0.0055542000000000005
-0.00177002
-0.00415039
-0.00292969
-0.005737300000000001
-0.00213623
-0.00402832
-0.00341797
-0.00500488
-0.00238037
-0.00402832
-0.00518799
-0.00518799
-0.00402832
-0.00494385
-0.00634766
-0.00506592
-0.00598145
-0.00506592
-0.00695801
-0.00488281
-0.00726318
-0.00469971
-0.00689697
-0.00543213
-0.00921631
-0.00653076
-0.00939941
-0.00823975
-0.010498
-0.00598145
-0.00738525
-0.00640869
-0.00775146
-0.00457764
-0.00598145
-0.00628662
-0.00616455
-0.00488281
-0.00524902
-0.00634766
-0.004516600000000001
-0.00549316
-0.00488281
-0.00756836
-0.005737300000000001
-0.00830078
-0.00512695
-0.00646973
-0.00390625
-0.00689697
-0.003479
-0.00579834
-0.00469971
-0.00762939
-0.00384521
-0.00561523
-0.00531006
-0.00695801
-0.0043335
-0.00616455
-0.00708008
-0.00683594
-0.00549316
-0.0055542000000000005
-0.00689697
-0.00537109
-0.00646973
-0.00561523
-0.00775146
-0.00561523
-0.00787354
-0.00494385
-0.00683594
-0.00482178
-0.00756836
-0.00366211
-0.00567627
-0.00415039
-0.00695801
-0.00323486
-0.00482178
-0.00427246
-0.00561523
-0.00274658
-0.0043335
-0.00561523
-0.00579834
-0.00482178
-0.00500488
-0.00610352
-0.00421143
-0.00543213
-0.00506592
-0.00744629
-0.00524902
-0.00726318
-0.00354004
-0.00512695
-0.00305176
-0.00646973
-0.00341797
-0.00628662
-0.00531006
-0.00823975
-0.00445557
-0.00622559
-0.005737300000000001
-0.00720215
-0.00445557
-0.00567627
-0.00604248
-0.00518799
-0.00390625
-0.0043335
-0.00592041
-0.00476074
-0.00640869
-0.00567627
-0.00799561
-0.005737300000000001
-0.00799561
-0.00469971
-0.00653076
-0.00463867
-0.00823975
-0.00494385
-0.00775146
-0.00665283
-0.00891113
-0.00463867
-0.00585938
-0.00518799
-0.00640869
-0.00372314
-0.00488281
-0.00543213
-0.00506592
-0.00445557
-0.00524902
-0.00744629
-0.00585938
-0.00701904
-0.00543213
-0.00701904
-0.00439453
-0.00695801
-0.00390625
-0.00598145
-0.00378418
-0.00616455
-0.00170898
-0.00323486
-0.00189209
-0.00469971
-0.00140381
-0.00396729
-0.00445557
-0.00628662
-0.00445557
-0.00579834
-0.00640869
-0.00561523
-0.00476074
-0.00518799
-0.00653076
-0.00463867
-0.00567627
-0.00390625
-0.00628662
-0.00421143
-0.00653076
-0.00311279
-0.00469971
-0.00244141
-0.0055542000000000005
-0.00213623
-0.00488281
-0.00482178
-0.00836182
-0.00543213
-0.00762939
-0.00726318
-0.00799561
-0.00494385
-0.00592041
-0.00653076
-0.00634766
-0.00610352
-0.006591800000000001
-0.00866699
-0.00726318
-0.00848389
-0.00695801
-0.00842285
-0.00561523
-0.00787354
-0.00469971
-0.00683594
-0.00463867
-0.00787354
-0.004516600000000001
-0.00744629
-0.00750732
-0.0106201
-0.00708008
-0.00854492
-0.00817871
-0.00933838
-0.00744629
-0.00915527
-0.0101318
-0.00927734
-0.00811768
-0.00744629
-0.00823975
-0.00622559
-0.00836182
-0.00756836
-0.0107422
-0.00921631
-0.0122681
-0.00909424
-0.0113525
-0.00927734
-0.012146
-0.00775146
-0.00958252
-0.00848389
-0.0111084
-0.00805664
-0.0103149
-0.0106201
-0.0118408
-0.00927734
-0.0098877
-0.0102539
-0.00915527
-0.00836182
-0.00738525
-0.00769043
-0.00439453
-0.004516600000000001
-0.00195312
-0.00366211
-0.00170898
-0.00506592
-0.00292969
-0.00610352
-0.00482178
-0.00793457
-0.0032959000000000005
-0.00457764
-0.00311279
-0.00585938
-0.00323486
-0.00585938
-0.00628662
-0.00744629
-0.00543213
-0.00671387
-0.00830078
-0.00854492
-0.00964355
-0.0109253
-0.0140381
-0.0130615
-0.0150146
-0.0128174
-0.014526400000000004
-0.0124512
-0.0161743
-0.014099100000000003
-0.0170898
-0.015563999999999996
-0.0187378
-0.0145874
-0.016845699999999998
-0.0159912
-0.0192871
-0.016113299999999997
-0.0181274
-0.017761199999999998
-0.0180054
-0.0151367
-0.0155029
-0.0162964
-0.015319799999999996
-0.0150757
-0.015197799999999997
-0.017028799999999997
-0.0151367
-0.0161743
-0.0134277
-0.0148315
-0.0128174
-0.0167847
-0.0149536
-0.0187988
-0.0185547
-0.0236816
-0.0219727
-0.0270386
-0.0299683
-0.0370483
-0.0390015
-0.0477295
-0.0561523
-0.06579589999999999
-0.071228
-0.0778809
-0.0836182
-0.08923339999999999
-0.0978394
-0.10736099999999997
-0.119507
-0.127075
-0.136658
-0.141907
-0.152161
-0.15924100000000002
-0.171997
-0.177979
-0.189026
-0.194275
-0.202148
-0.199585
-0.202942
-0.206604
-0.218872
-0.228516
-0.244934
-0.258362
-0.271179
-0.27948
-0.291504
-0.305969
-0.320984
-0.338562
-0.354797
-0.372253
-0.385742
-0.404114
-0.418274
-0.434937
-0.443726
-0.455383
-0.457886
-0.465088
-0.467407
-0.475342
-0.475403
-0.480652
-0.480957
-0.4829100000000001
-0.477417
-0.475586
-0.471741
-0.468262
-0.459473
-0.453064
-0.447998
-0.44281
-0.4400020000000001
-0.435364
-0.431641
-0.422974
-0.417542
-0.406616
-0.400269
-0.390442
-0.385803
-0.373413
-0.366394
-0.355103
-0.349243
-0.3349
-0.326416
-0.315491
-0.30835
-0.294739
-0.285339
-0.275085
-0.266541
-0.255798
-0.247681
-0.240967
-0.233337
-0.22650100000000006
-0.218384
-0.213135
-0.204224
-0.200439
-0.19281
-0.191101
-0.185364
-0.184692
-0.17511
-0.17157
-0.16449
-0.163879
-0.155701
-0.15466300000000002
-0.152771
-0.156799
-0.15698199999999998
-0.16351300000000002
-0.17040999999999998
-0.178223
-0.1828
-0.189819
-0.199219
-0.207092
-0.215088
-0.219238
-0.226013
-0.228699
-0.234802
-0.232727
-0.233154
-0.227173
-0.225708
-0.215332
-0.211609
-0.204102
-0.201843
-0.190491
-0.184814
-0.177063
-0.173218
-0.163025
-0.156494
-0.14868199999999998
-0.141663
-0.131348
-0.12133800000000003
-0.111877
-0.100403
-0.0903931
-0.0772095
-0.067749
-0.0556641
-0.0495605
-0.0376587
-0.03125
-0.0216064
-0.0195312
-0.0105591
-0.00854492
-0.00457764
-0.00762939
-0.00500488
-0.00738525
-0.00634766
-0.00830078
-0.00640869
-0.00927734
-0.0114136
-0.0126953
-0.012756299999999998
-0.0143433
-0.0171509
-0.0165405
-0.015930200000000002
-0.0129395
-0.0142822
-0.0135498
-0.0181885
-0.016967799999999998
-0.0192261
-0.0165405
-0.019165
-0.014892600000000002
-0.0161743
-0.014221200000000003
-0.016845699999999998
-0.0119019
-0.0119019
-0.00994873
-0.0101929
-0.005737300000000001
-0.00494385
-0.00390625
-0.00299072
-0.000610352
0.000854492
0.000854492
0.003479
0.003479
0.00585938
0.00518799
0.00811768
0.00634766
0.0100708
0.0088501
0.011657700000000002
0.00921631
0.0139771
0.0129395
0.0147705
0.0119019
0.015625
0.0140381
0.014526400000000004
0.0123901
0.0147705
0.0136719
0.0130005
0.0128174
0.0140381
0.0140381
0.0128174
0.014221200000000003
0.0136719
0.0153809
0.0136719
0.015930200000000002
0.0146484
0.0188599
0.017211900000000002
0.018981900000000003
0.0165405
0.0224609
0.0216064
0.0230713
0.018981900000000003
0.0227051
0.0211792
0.0218506
0.0196533
0.022949200000000003
0.0219727
0.0213013
0.0211182
0.0234985
0.0246582
0.0235596
0.0244751
0.0230103
0.0252686
0.023864700000000003
0.0266113
0.0245361
0.0285645
0.026367200000000004
0.0274658
0.0221558
0.0250854
0.0220947
0.0234985
0.0201416
0.0250854
0.0240479
0.0245972
0.0214233
0.0234375
0.0221558
0.0219116
0.0217285
0.022644
0.0220947
0.0194702
0.018981900000000003
0.016662599999999996
0.0185547
0.0174561
0.0206299
0.0192261
0.0234985
0.021667500000000003
0.0230713
0.0178223
0.0202026
0.017394999999999997
0.0189209
0.016052200000000003
0.020874
0.0203247
0.022033700000000003
0.0205078
0.0230103
0.0219116
0.0214233
0.0213623
0.022033700000000003
0.0222168
0.0201416
0.020813
0.0192871
0.0209961
0.0195312
0.0219116
0.0194702
0.0228271
0.0213013
0.0235596
0.0203857
0.0244751
0.0223389
0.0235596
0.0206909
0.0239868
0.0224609
0.0231323
0.0219727
0.0249634
0.0250244
0.0245361
0.0241699
0.0238037
0.023193400000000003
0.0209351
0.0216064
0.0202026
0.022583
0.0206909
0.0227051
0.0195312
0.0222168
0.0194702
0.0209351
0.0174561
0.0214844
0.0198364
0.0209961
0.0175781
0.0205688
0.0185547
0.0184937
0.0167847
0.0194092
0.0188599
0.019165
0.0197144
0.0209961
0.0218506
0.0205688
0.0214844
0.0200806
0.0223389
0.0213623
0.0240479
0.0221558
0.025817900000000005
0.024231
0.0266724
0.0238037
0.0281372
0.0265503
0.027771
0.0246582
0.027771
0.0261841
0.026367200000000004
0.0249023
0.027832
0.027771
0.0274658
0.0270386
0.0266724
0.025817900000000005
0.0241699
0.0256958
0.0247192
0.026916500000000003
0.0252075
0.0269775
0.0241699
0.0267334
0.0249634
0.0267334
0.0231323
0.0262451
0.0239258
0.0248413
0.0220947
0.0256958
0.024353
0.0246582
0.0230103
0.0253906
0.0249634
0.0241699
0.0244141
0.0250244
0.0253906
0.0236816
0.0248413
0.023193400000000003
0.0250854
0.0239258
0.0264282
0.024292
0.027832
0.026001
0.0272217
0.0232544
0.025817900000000005
0.023315400000000003
0.0241699
0.0219116
0.025634800000000003
0.0248413
0.0253906
0.024292
0.0268555
0.026794400000000003
0.026367200000000004
0.0268555
0.0275269
0.0282593
0.0270386
0.0280762
0.0262451
0.02771
0.026001
0.0286865
0.026794400000000003
0.0306396
0.029541
0.0308838
0.0273438
0.0305786
0.0285645
0.0299683
0.0279541
0.0320435
0.031189
0.0314331
0.0302734
0.032958999999999995
0.032775900000000004
0.0324097
0.032958999999999995
0.0338745
0.0353394
0.034729
0.036438
0.0354004
0.0376587
0.0360107
0.0375366
0.034057599999999986
0.0366211
0.0342407
0.0355835
0.0317993
0.0357056
0.0344849
0.036132800000000014
0.0338135
0.0372925
0.0357666
0.0357056
0.0338135
0.035522500000000005
0.0343018
0.0332642
0.0334473
0.034668
0.0360107
0.034729
0.035522500000000005
0.032958999999999995
0.034057599999999986
0.031616200000000004
0.032653800000000004
0.0286865
0.0305786
0.0279541
0.0291748
0.0258789
0.0292969
0.0275269
0.0287476
0.026367200000000004
0.0296631
0.028442400000000007
0.0280151
0.0262451
0.0279541
0.0274048
0.0262451
0.0265503
0.0272217
0.028442400000000007
0.026916500000000003
0.0283203
0.026001
0.027771
0.025817900000000005
0.0275269
0.0240479
0.0264893
0.023864700000000003
0.0250244
0.022033700000000003
0.026062
0.0247192
0.0262451
0.0234985
0.0262451
0.024292
0.0234375
0.0218506
0.0236816
0.0231323
0.0216064
0.0206299
0.0195923
0.0194092
0.0170898
0.0176392
0.0149536
0.016113299999999997
0.014221200000000003
0.0161743
0.0136719
0.017028799999999997
0.015319799999999996
0.0167847
0.0136719
0.0177002
0.0164185
0.0183105
0.016723599999999998
0.0211182
0.0203247
0.0206909
0.0196533
0.0218506
0.0219116
0.0209961
0.0213013
0.0219116
0.0233765
0.0224609
0.024353
0.0230713
0.0256958
0.0240479
0.0262451
0.0236816
0.0274048
0.026001
0.028198200000000007
0.0251465
0.0293579
0.0279541
0.0286255
0.0257568
0.0288086
0.027648900000000004
0.0275269
0.026916500000000003
0.0293579
0.0296631
0.028869599999999995
0.0294189
0.0294189
0.0304565
0.0294189
0.0314331
0.0300903
0.0332031
0.031189
0.0317383
0.0271606
0.030334500000000007
0.0292969
0.0325928
0.0304565
0.0342407
0.0314941
0.0317993
0.0297241
0.0342407
0.034362800000000006
0.0346069
0.0319214
0.0320435
0.0323486
0.034057599999999986
0.0374146
0.0379639
0.0374146
0.033630400000000005
0.0349731
0.0353394
0.0400391
0.0374146
0.0367432
0.0313721
0.0357666
0.0366821
0.0418091
0.0397949
0.0432739
0.039978
0.0394897
0.035522500000000005
0.0377197
0.0357056
0.0360107
0.0366821
0.0406494
0.0421143
0.0422363
0.0437012
0.044799800000000015
0.0471802
0.045898400000000006
0.0472412
0.0446167
0.0473022
0.0452881
0.0470581
0.0441284
0.0490723
0.048584
0.0518188
0.0487061
0.0528564
0.0521851
0.0540161
0.05242919999999999
0.0557861
0.0541382
0.053710900000000006
0.0531006
0.0562134
0.05694580000000001
0.0560303
0.056457500000000015
0.055481
0.0563354
0.053833000000000006
0.0548096
0.0517578
0.0545654
0.052734400000000015
0.0545044
0.0504761
0.0534668
0.0505981
0.0512695
0.0471191
0.0501099
0.0471191
0.0466309
0.0426636
0.0442505
0.041626
0.039856
0.0374146
0.0375977
0.036193800000000005
0.033630400000000005
0.0328979
0.0308838
0.0307007
0.0274048
0.027771
0.0237427
0.0253296
0.0230713
0.0264282
0.0255737
0.0325928
0.032775900000000004
0.03302
0.024353
0.0213623
0.0155029
0.0161743
0.016662599999999996
0.0219116
0.0197144
0.0164185
0.0136719
0.016235399999999997
0.0200195
0.022522
0.0250854
0.024292
0.022949200000000003
0.016845699999999998
0.0155029
0.012146
0.016662599999999996
0.015625
0.0155029
0.00811768
0.0107422
0.0130615
0.0203247
0.0183105
0.016662599999999996
0.00720215
0.00415039
0.00445557
0.0128174
0.013916
0.0119629
0.00909424
0.0119019
0.016479499999999998
0.0200195
0.0221558
0.0194092
0.016845699999999998
0.0105591
0.00793457
0.00268555
0.00488281
0.00531006
0.0112305
0.010498
0.0148315
0.012146
0.0123901
0.00756836
0.00982666
0.0055542000000000005
0.00445557
0.00134277
0.00476074
0.00390625
0.00317383
0.00268555
0.00567627
0.00811768
0.00750732
0.00598145
0.0012207
0.000183105
-0.0022583000000000004
0.000671387
-0.0012207
0.00115967
-0.0022583000000000004
-0.00146484
-0.00579834
-0.00305176
-0.00598145
-0.00482178
-0.00805664
-0.00415039
-0.00671387
-0.00750732
-0.010498
-0.00695801
-0.006591800000000001
-0.00653076
-0.00738525
-0.00640869
-0.00579834
-0.00653076
-0.00488281
-0.00518799
-0.00250244
-0.00219727
0.00146484
-0.000244141
0.00250244
0.000183105
0.00256348
0.00012207
0.00488281
0.00317383
0.00518799
0.00274658
0.00793457
0.00750732
0.00860596
0.00640869
0.00970459
0.00946045
0.00982666
0.00982666
0.0114136
0.0114136
0.00933838
0.00872803
0.00616455
0.0067749
0.00610352
0.0102539
0.00939941
0.0128784
0.00994873
0.010498
0.00622559
0.0105591
0.00982666
0.0123291
0.00976562
0.0139771
0.0125732
0.0128784
0.0100708
0.0119629
0.0102539
0.00976562
0.00897217
0.00946045
0.009033200000000002
0.00732422
0.00897217
0.00897217
0.0114746
0.010498
0.013305700000000002
0.0113525
0.0147705
0.0128784
0.0139771
0.00933838
0.012756299999999998
0.0111084
0.0130615
0.0108643
0.0153809
0.0143433
0.0149536
0.0125732
0.015319799999999996
0.0147095
0.0146484
0.0150146
0.016235399999999997
0.0169067
0.0159912
0.0178223
0.017394999999999997
0.0195312
0.0181885
0.0204468
0.0184937
0.022399900000000004
0.0209351
0.0230103
0.0194702
0.0235596
0.0217285
0.023315400000000003
0.0200195
0.0232544
0.0213623
0.0214844
0.019104
0.0210571
0.0196533
0.019165
0.0192261
0.0206299
0.0210571
0.0196533
0.0205078
0.0186768
0.0196533
0.016845699999999998
0.017761199999999998
0.014221200000000003
0.0162964
0.0139771
0.0153809
0.0114746
0.0148315
0.012756299999999998
0.0137939
0.010498
0.0134277
0.0109863
0.010437
0.00756836
0.00915527
0.00744629
0.00628662
0.00561523
0.00646973
0.00653076
0.00543213
0.00671387
0.00585938
0.00762939
0.00543213
0.00634766
0.00262451
0.00549316
0.00360107
0.00561523
0.00177002
0.00482178
0.00231934
0.00317383
-0.000244141
0.00311279
0.00170898
0.0022583000000000004
0.000549316
0.00317383
0.00231934
0.00140381
0.00109863
0.00158691
0.00183105
0.000549316
0.00195312
0.0007324219999999999
0.00219727
-0.00012207
0.00189209
-0.000610352
0.00354004
0.00262451
0.00506592
0.00183105
0.00524902
0.00299072
0.00390625
0.000793457
0.00469971
0.00354004
0.004516600000000001
0.00360107
0.0067749
0.00671387
0.00653076
0.00689697
0.00811768
0.00897217
0.00793457
0.00897217
0.00744629
0.00933838
0.0078125
0.0103149
0.00823975
0.012146
0.0109863
0.0134888
0.010376
0.0141602
0.0124512
0.0137939
0.0113525
0.015625
0.0146484
0.0150757
0.0136719
0.015808100000000002
0.015197799999999997
0.0147095
0.0147705
0.015563999999999996
0.016113299999999997
0.0152588
0.0169067
0.016052200000000003
0.0178223
0.0159912
0.0178833
0.0152588
0.0182495
0.016723599999999998
0.0187988
0.0157471
0.0195923
0.0177002
0.0188599
0.0162964
0.0205688
0.0198364
0.0203247
0.0188599
0.0210571
0.0204468
0.0201416
0.0203857
0.0214844
0.022522
0.0223389
0.0247803
0.024231
0.0265503
0.024231
0.0250854
0.0212402
0.0238037
0.0219727
0.0241699
0.0215454
0.0257568
0.024353
0.026367200000000004
0.0247192
0.029541
0.029480000000000006
0.030212400000000007
0.0289307
0.0314331
0.03125
0.0308838
0.0313721
0.0324707
0.0334473
0.03302
0.035461400000000004
0.034668
0.0371704
0.0354004
0.037353500000000005
0.034362800000000006
0.0379028
0.036438
0.0388184
0.035949699999999994
0.0403442
0.0387573
0.0396118
0.0366211
0.040405300000000005
0.0395508
0.0397339
0.038269
0.0402832
0.0394897
0.0386353
0.038269
0.038208
0.0380249
0.0349121
0.0338135
0.031005900000000006
0.0345459
0.0371704
0.044067400000000014
0.041748
0.0385742
0.0252686
0.0172729
0.0114136
0.0205688
0.0268555
0.032226599999999994
0.0270386
0.0234375
0.0148315
0.00946045
0.00463867
0.00427246
0.00238037
0.00146484
0.00262451
0.00427246
0.00592041
0.00512695
0.00646973
0.00317383
0.00250244
-0.00164795
-0.000793457
-0.00286865
0.0032959000000000005
0.00634766
0.0134277
0.014221200000000003
0.0192261
0.0169067
0.016357399999999998
0.0125122
0.0147705
0.0122681
0.0100098
0.00567627
0.00592041
0.0043335
0.00323486
0.00268555
0.00128174
0.000366211
-0.00128174
0.0010376
0.000488281
0.0032959000000000005
0.00244141
0.00585938
0.00445557
0.00878906
0.00726318
0.00897217
0.00610352
0.010498
0.0098877
0.011657700000000002
0.00964355
0.013183600000000002
0.0119629
0.011657700000000002
0.0102539
0.0119629
0.0115967
0.0109253
0.011718799999999998
0.0123291
0.0137939
0.0132446
0.015441899999999996
0.013916
0.015625
0.0129395
0.0148315
0.0129395
0.018066400000000003
0.016967799999999998
0.019104
0.016113299999999997
0.0215454
0.0206909
0.0212402
0.017394999999999997
0.0204468
0.0194092
0.0193481
0.0172729
0.0178223
0.016235399999999997
0.0155029
0.0159912
0.015930200000000002
0.016113299999999997
0.0134888
0.014526400000000004
0.0126343
0.0153809
0.0126953
0.0131226
0.00823975
0.0111694
0.00872803
0.0103149
0.00646973
0.0105591
0.00909424
0.010376
0.00689697
0.00891113
0.00628662
0.00537109
0.00311279
0.00390625
0.00231934
0.000793457
0.00152588
0.0020752
0.00354004
0.0020752
0.00427246
0.00299072
0.005737300000000001
0.00335693
0.004516600000000001
6.10352e-05
0.00262451
0.000244141
0.00146484
-0.00189209
0.00274658
0.00219727
0.00415039
0.00183105
0.00421143
0.00213623
0.00183105
0.000976562
0.00390625
0.00396729
0.00354004
0.00445557
0.00469971
0.00567627
0.00427246
0.00634766
0.00482178
0.00817871
0.00671387
0.00860596
0.00469971
0.00787354
0.005737300000000001
0.00750732
0.00390625
0.00726318
0.00500488
0.00598145
0.003479
0.00714111
0.00604248
0.00604248
0.00518799
0.00671387
0.00646973
0.005737300000000001
0.00720215
0.0078125
0.00933838
0.00769043
0.00915527
0.00708008
0.00952148
0.0078125
0.0103149
0.00750732
0.0115356
0.0101929
0.012085
0.009033200000000002
0.013183600000000002
0.0115356
0.012756299999999998
0.0107422
0.013855
0.012756299999999998
0.0123901
0.0115356
0.0133667
0.0136719
0.0132446
0.0141602
0.0139771
0.0143433
0.0125122
0.013916
0.0119629
0.0148315
0.0128174
0.0143433
0.0109863
0.0143433
0.0125732
0.0142822
0.0113525
0.015686000000000002
0.0143433
0.015197799999999997
0.0125122
0.0151367
0.0136719
0.0133667
0.0124512
0.0141602
0.0140381
0.0134277
0.0144653
0.0148315
0.016052200000000003
0.0150146
0.016662599999999996
0.0151367
0.0175171
0.0155029
0.0164185
0.0125122
0.0152588
0.0130615
0.0144043
0.0113525
0.0155029
0.014221200000000003
0.0150757
0.0128784
0.015686000000000002
0.014526400000000004
0.0143433
0.0139771
0.016052200000000003
0.0165405
0.015808100000000002
0.0162964
0.015441899999999996
0.0159912
0.014221200000000003
0.0152588
0.012207
0.0140381
0.0115356
0.013305700000000002
0.0102539
0.013183600000000002
0.010498
0.0109253
0.00714111
0.010376
0.00866699
0.00927734
0.00653076
0.00933838
0.00799561
0.00756836
0.00646973
0.00799561
0.00836182
0.00701904
0.00701904
0.00579834
0.00622559
0.00402832
0.00531006
0.00280762
0.00463867
0.00238037
0.00372314
-0.000183105
0.00305176
0.0012207
0.00317383
0.000610352
0.0043335
0.00213623
0.00183105
-0.00115967
0.00177002
0.00152588
0.00189209
0.00164795
0.00323486
0.00311279
0.00189209
0.00256348
0.00146484
0.00268555
0.00164795
0.00402832
0.00244141
0.00531006
0.00402832
0.00598145
0.00311279
0.00708008
0.00512695
0.00653076
0.00335693
0.00726318
0.00567627
0.00640869
0.00415039
0.00750732
0.00665283
0.00628662
0.00531006
0.00604248
0.0055542000000000005
0.00457764
0.005737300000000001
0.00585938
0.00732422
0.00622559
0.00811768
0.00567627
0.00823975
0.00616455
0.00793457
0.004516600000000001
0.00799561
0.0055542000000000005
0.00646973
0.00317383
0.00726318
0.00610352
0.006591800000000001
0.00408936
0.00665283
0.0055542000000000005
0.005737300000000001
0.00561523
0.00701904
0.00671387
0.00531006
0.00628662
0.00585938
0.00756836
0.00671387
0.00921631
0.00762939
0.0114136
0.0100708
0.012146
0.00891113
0.0126343
0.0109863
0.0125732
0.0098877
0.0141602
0.0130005
0.0143433
0.0126343
0.015625
0.0143433
0.0136719
0.0124512
0.0134888
0.013183600000000002
0.012085
0.0131226
0.012756299999999998
0.0144653
0.0125732
0.0145874
0.0123291
0.0155029
0.0134277
0.0147705
0.0106201
0.0137939
0.0115356
0.0128174
0.00976562
0.013855
0.0126343
0.0131226
0.0105591
0.013305700000000002
0.0125122
0.0119629
0.011718799999999998
0.0126953
0.0123291
0.0106201
0.0114136
0.010437
0.0120239
0.0101929
0.012085
0.00958252
0.012756299999999998
0.010376
0.012146
0.00872803
0.0128174
0.0111694
0.0125732
0.00842285
0.0118408
0.0100708
0.0109253
0.00909424
0.012085
0.0112305
0.010498
0.00921631
0.0098877
0.00964355
0.00799561
0.00915527
0.00830078
0.00976562
0.00793457
0.00982666
0.00750732
0.0108643
0.00909424
0.0109253
0.00695801
0.0109253
0.00878906
0.0101929
0.00646973
0.0101318
0.00842285
0.00878906
0.00628662
0.0088501
0.00769043
0.00726318
0.0067749
0.00805664
0.00848389
0.00738525
0.00866699
0.00799561
0.0098877
0.00793457
0.00970459
0.0067749
0.00958252
0.00762939
0.00939941
0.00585938
0.0100708
0.00836182
0.00970459
0.00628662
0.0102539
0.00848389
0.00921631
0.00701904
0.0098877
0.00872803
0.00787354
0.00726318
0.00793457
0.00787354
0.00653076
0.00811768
0.00750732
0.00933838
0.00762939
0.00921631
0.00628662
0.00964355
0.00762939
0.00970459
0.00598145
0.00982666
0.00756836
0.00842285
0.004516600000000001
0.00811768
0.00640869
0.00701904
0.00506592
0.00817871
0.00756836
0.00714111
0.00653076
0.00720215
0.00671387
0.00463867
0.00518799
0.00390625
0.00567627
0.0043335
0.00683594
0.00457764
0.00762939
0.00537109
0.00665283
0.00256348
0.00653076
0.00463867
0.00646973
0.00372314
0.00775146
0.00628662
0.00695801
0.00512695
0.00756836
0.006591800000000001
0.00592041
0.00524902
0.00616455
0.00616455
0.00488281
0.00598145
0.00488281
0.006591800000000001
0.00445557
0.00616455
0.00323486
0.00634766
0.00396729
0.00585938
0.00189209
0.00585938
0.003479
0.004516600000000001
0.000854492
0.00463867
0.00311279
0.00390625
0.00213623
0.00445557
0.00323486
0.00213623
0.00140381
0.0022583000000000004
0.00244141
0.000976562
0.0022583000000000004
0.000976562
0.00323486
0.0020752
0.00457764
0.00201416
0.00506592
0.00292969
0.00488281
0.00134277
0.00543213
0.0032959000000000005
0.00476074
0.00164795
0.0055542000000000005
0.00439453
0.00524902
0.00335693
0.00567627
0.00445557
0.00341797
0.00305176
0.00408936
0.00494385
0.00396729
0.00537109
0.00396729
0.00561523
0.00335693
0.00469971
0.0010376
0.00323486
0.000610352
0.00201416
-0.000976562
0.00396729
0.00335693
0.00524902
0.00201416
0.00500488
0.00286865
0.00256348
0.000427246
0.00317383
0.00268555
0.00250244
0.00250244
0.00317383
0.00323486
0.00164795
0.00274658
0.00170898
0.00396729
0.0022583000000000004
0.00396729
0.000366211
0.00305176
0.000671387
0.00292969
0.0
0.00427246
0.00201416
0.00299072
-0.0007324219999999999
0.00292969
0.00152588
0.00170898
-0.000366211
0.00183105
0.000488281
-0.000366211
-0.000671387
0.0
0.000610352
-0.000305176
0.00109863
-0.00012207
0.00177002
-0.000244141
0.00170898
-0.00140381
0.00195312
-0.000244141
0.00170898
-0.00164795
0.00238037
0.000549316
0.00170898
-0.00164795
0.00170898
6.10352e-05
0.000549316
-0.000549316
0.00305176
0.00311279
0.00268555
0.00195312
0.00195312
0.00195312
0.000488281
0.0022583000000000004
0.0010376
0.00268555
0.000610352
0.00262451
-0.00012207
0.00317383
0.0012207
0.00317383
-0.000305176
0.00384521
0.0020752
0.00305176
-0.000366211
0.00323486
0.00189209
0.00250244
0.00115967
0.00402832
0.00384521
0.00311279
0.00305176
0.003479
0.00421143
0.00280762
0.00396729
0.0020752
0.00335693
0.00109863
0.00299072
0.000366211
0.00402832
0.00262451
0.00439453
0.000549316
0.00408936
0.00164795
0.00268555
-0.000183105
0.00354004
0.00189209
0.00177002
-0.000183105
0.00244141
0.00213623
0.00195312
0.0022583000000000004
0.00317383
0.00396729
0.00262451
0.00360107
0.00134277
0.00299072
0.00109863
0.00335693
0.000854492
0.00445557
0.00250244
0.00408936
0.000427246
0.00402832
0.00195312
0.00292969
0.000183105
0.00402832
0.00292969
0.00305176
0.00140381
0.00354004
0.00305176
0.00262451
0.00323486
0.003479
0.00402832
0.00244141
0.00366211
0.00244141
0.00482178
0.00335693
0.00549316
0.00238037
0.00549316
0.00299072
0.0043335
0.000793457
0.00445557
0.00219727
0.00299072
-0.000244141
0.00335693
0.00183105
0.00201416
0.000366211
0.00268555
0.0022583000000000004
0.00152588
0.00158691
0.00213623
0.00280762
0.00140381
0.00286865
0.000854492
0.0022583000000000004
-0.00012207
0.00183105
-0.000671387
0.00317383
0.00164795
0.00372314
0.000671387
0.00457764
0.00213623
0.00262451
-0.000915527
0.00238037
0.00109863
0.00134277
6.10352e-05
0.00238037
0.00183105
0.000671387
0.0007324219999999999
0.0010376
0.00189209
0.0007324219999999999
0.00238037
0.000244141
0.0020752
0.0
0.00183105
-0.000976562
0.0022583000000000004
0.000488281
0.00238037
-0.000915527
0.0032959000000000005
0.00152588
0.00244141
-0.000671387
0.00280762
0.0012207
0.00128174
-0.00012207
0.00231934
0.00244141
0.00201416
0.00256348
0.00250244
0.00299072
0.00158691
0.00341797
0.00201416
0.004516600000000001
0.00262451
0.00439453
0.00109863
0.00408936
0.00195312
0.00396729
0.000671387
0.00469971
0.00292969
0.00366211
0.000549316
0.00384521
0.00213623
0.00213623
0.000671387
0.00323486
0.003479
0.00305176
0.00366211
0.00396729
0.0043335
0.00238037
0.003479
0.00177002
0.00445557
0.00305176
0.00531006
0.00213623
0.00494385
0.00262451
0.00427246
0.000976562
0.00476074
0.00292969
0.00354004
0.000366211
0.00323486
0.00213623
0.00250244
0.00152588
0.00384521
0.00366211
0.00292969
0.00299072
0.00299072
0.0032959000000000005
0.00152588
0.00262451
0.000976562
0.00372314
0.00219727
0.00421143
0.00134277
0.00482178
0.00262451
0.00427246
0.000854492
0.00463867
0.00274658
0.00354004
0.000610352
0.00390625
0.00280762
0.00268555
0.00134277
0.003479
0.00311279
0.00262451
0.00299072
0.0032959000000000005
0.00415039
0.00250244
0.00390625
0.0020752
0.00439453
0.00262451
0.00457764
0.00128174
0.00445557
0.00219727
0.00360107
0.00012207
0.00421143
0.00238037
0.00335693
0.000915527
0.00457764
0.00366211
0.00384521
0.00256348
0.00494385
0.00494385
0.0043335
0.00494385
0.004516600000000001
0.00482178
0.00268555
0.00415039
0.00231934
0.00512695
0.003479
0.00585938
0.00262451
0.00585938
0.00335693
0.00476074
0.00140381
0.00585938
0.004516600000000001
0.00549316
0.00292969
0.00634766
0.00524902
0.00494385
0.0032959000000000005
0.00469971
0.00396729
0.00305176
0.00372314
0.00372314
0.00506592
0.00390625
0.0055542000000000005
0.003479
0.00561523
0.00299072
0.00482178
0.00134277
0.00500488
0.00280762
0.00439453
0.00115967
0.00592041
0.00500488
0.00628662
0.00372314
0.00646973
0.00457764
0.00384521
0.00195312
0.0032959000000000005
0.00317383
0.00250244
0.00286865
0.00250244
0.00311279
0.00134277
0.00305176
0.00134277
0.00360107
0.00146484
0.00335693
0.000366211
0.00421143
0.00256348
0.00408936
0.000671387
0.00457764
0.00280762
0.003479
0.000610352
0.00402832
0.00311279
0.00323486
0.00219727
0.00396729
0.003479
0.00219727
0.00262451
0.00244141
0.00317383
0.00115967
0.00280762
0.000610352
0.00299072
0.000854492
0.00286865
-0.000183105
0.00366211
0.00177002
0.00354004
0.000488281
0.00488281
0.00341797
0.00427246
0.00146484
0.00439453
0.0032959000000000005
0.00311279
0.00213623
0.0043335
0.00445557
0.003479
0.00396729
0.00317383
0.00311279
0.000610352
0.00183105
-0.000549316
0.00213623
0.000427246
0.00262451
-0.000305176
0.003479
0.00134277
0.00274658
-0.000793457
0.00311279
0.00146484
0.00231934
-0.000305176
0.00299072
0.00213623
0.00244141
0.00164795
0.00323486
0.00268555
0.0012207
0.00201416
0.0020752
0.00341797
0.00213623
0.00378418
0.00140381
0.00390625
0.00152588
0.00341797
0.0
0.00335693
0.000976562
0.00219727
-0.0007324219999999999
0.00372314
0.00286865
0.00408936
0.00134277
0.00396729
0.00231934
0.00170898
0.000244141
0.00164795
0.00140381
0.000610352
0.00146484
0.00146484
0.00286865
0.00134277
0.00299072
0.000915527
0.003479
0.00146484
0.00299072
-0.0007324219999999999
0.00219727
-0.000366211
0.00134277
-0.00164795
0.00274658
0.00164795
0.0022583000000000004
-0.000488281
0.00262451
0.00140381
0.00128174
0.000671387
0.0022583000000000004
0.00158691
6.10352e-05
0.0
-0.000610352
0.000305176
-0.000976562
0.000854492
-0.000976562
0.00183105
-0.000183105
0.00195312
-0.00134277
0.00195312
-0.000183105
0.000671387
-0.00280762
0.00109863
-0.000305176
0.000793457
-0.00164795
0.000976562
-0.000183105
-0.0007324219999999999
-0.00177002
-0.000244141
-0.000488281
-0.00183105
-0.000854492
-0.00109863
0.000488281
-0.000976562
0.000488281
-0.0020752
0.000305176
-0.00177002
-0.000305176
-0.00360107
-0.000244141
-0.00250244
-0.00140381
-0.00469971
-0.000793457
-0.00183105
-0.000671387
-0.00280762
0.000183105
-0.0007324219999999999
-0.000793457
-0.00115967
0.000488281
0.000366211
-0.000915527
0.0
-0.000366211
0.00115967
-0.0007324219999999999
0.0007324219999999999
-0.00158691
0.00115967
-0.000671387
0.00134277
-0.00177002
0.00219727
0.000488281
0.0020752
-0.00140381
0.00244141
0.0007324219999999999
0.00115967
-0.0012207
0.00195312
0.000976562
0.000976562
6.10352e-05
0.00134277
0.000976562
-0.000244141
0.000305176
-0.000488281
0.000610352
-0.000793457
0.000915527
-0.00164795
0.000549316
-0.00195312
-0.000366211
-0.00372314
6.10352e-05
-0.00189209
-0.000366211
-0.00354004
0.000427246
-0.00109863
-0.000488281
-0.00323486
-0.000976562
-0.00238037
-0.00311279
-0.00427246
-0.00286865
-0.00262451
-0.003479
-0.00268555
-0.00390625
-0.00311279
-0.00500488
-0.00268555
-0.00476074
-0.00213623
-0.00427246
-0.00292969
-0.00665283
-0.00292969
-0.00469971
-0.00341797
-0.00689697
-0.00372314
-0.00598145
-0.005737300000000001
-0.00836182
-0.00537109
-0.00616455
-0.00579834
-0.00610352
-0.00488281
-0.0055542000000000005
-0.00714111
-0.00646973
-0.00738525
-0.00610352
-0.00701904
-0.00488281
-0.00695801
-0.00476074
-0.00714111
-0.00634766
-0.010681200000000002
-0.00872803
-0.0106201
-0.00897217
-0.0119629
-0.00964355
-0.012085
-0.0112915
-0.0122681
-0.00909424
-0.00958252
-0.0100708
-0.010376
-0.00891113
-0.00915527
-0.0105591
-0.00958252
-0.00976562
-0.00769043
-0.0088501
-0.00744629
-0.0101929
-0.00750732
-0.00897217
-0.006591800000000001
-0.0102539
-0.00762939
-0.00976562
-0.00830078
-0.0114746
-0.00842285
-0.0101929
-0.0100098
-0.0118408
-0.00939941
-0.0105591
-0.0109863
-0.0109863
-0.009033200000000002
-0.00836182
-0.009033200000000002
-0.00817871
-0.00848389
-0.00683594
-0.00787354
-0.005737300000000001
-0.00769043
-0.00494385
-0.00640869
-0.00469971
-0.00823975
-0.00598145
-0.00842285
-0.00701904
-0.00927734
-0.005737300000000001
-0.00665283
-0.00585938
-0.00744629
-0.00482178
-0.00604248
-0.00683594
-0.00756836
-0.00665283
-0.00695801
-0.00811768
-0.00726318
-0.00805664
-0.00683594
-0.00866699
-0.00775146
-0.010437
-0.00854492
-0.0102539
-0.00872803
-0.011718799999999998
-0.0088501
-0.0109863
-0.0101318
-0.0134277
-0.0103149
-0.0119019
-0.0115967
-0.0140381
-0.0119019
-0.0132446
-0.014221200000000003
-0.0150146
-0.0134888
-0.0130615
-0.014221200000000003
-0.0137329
-0.0146484
-0.0136719
-0.0149536
-0.013305700000000002
-0.0158691
-0.014099100000000003
-0.016235399999999997
-0.0147095
-0.0178223
-0.0150757
-0.017211900000000002
-0.016052200000000003
-0.0185547
-0.0148315
-0.016113299999999997
-0.015930200000000002
-0.0180054
-0.015197799999999997
-0.0155029
-0.015808100000000002
-0.016235399999999997
-0.015441899999999996
-0.015563999999999996
-0.016479499999999998
-0.0150757
-0.015625
-0.0144653
-0.015808100000000002
-0.013855
-0.015930200000000002
-0.0137939
-0.015686000000000002
-0.013855
-0.0165405
-0.0126953
-0.0134888
-0.0109253
-0.0123901
-0.00811768
-0.009033200000000002
-0.00872803
-0.010498
-0.00854492
-0.00946045
-0.00933838
-0.00891113
-0.00738525
-0.00671387
-0.00732422
-0.00585938
-0.00616455
-0.00469971
-0.00561523
-0.00360107
-0.00567627
-0.00402832
-0.0067749
-0.00598145
-0.00915527
-0.00598145
-0.00744629
-0.00616455
-0.00915527
-0.00616455
-0.00830078
-0.00878906
-0.0110474
-0.00897217
-0.0100098
-0.010498
-0.0107422
-0.00946045
-0.009033200000000002
-0.00921631
-0.00793457
-0.00878906
-0.00823975
-0.0098877
-0.00823975
-0.010376
-0.00799561
-0.00939941
-0.00738525
-0.00976562
-0.00671387
-0.00848389
-0.00732422
-0.00946045
-0.00561523
-0.00665283
-0.00653076
-0.00872803
-0.00628662
-0.00701904
-0.00701904
-0.00701904
-0.00616455
-0.00646973
-0.00714111
-0.00549316
-0.00537109
-0.00408936
-0.00543213
-0.00378418
-0.00549316
-0.00280762
-0.00427246
-0.00238037
-0.00488281
-0.00164795
-0.00341797
-0.00238037
-0.00463867
-0.00146484
-0.00317383
-0.00286865
-0.00488281
-0.00256348
-0.0032959000000000005
-0.003479
-0.00396729
-0.00292969
-0.00323486
-0.00439453
-0.00323486
-0.00360107
-0.00256348
-0.00402832
-0.0020752
-0.00360107
-0.000976562
-0.00256348
-0.000915527
-0.00360107
-0.000610352
-0.0020752
-0.0007324219999999999
-0.00292969
0.000366211
-0.000854492
-0.000671387
-0.00219727
0.000366211
0.0
0.00012207
0.000549316
0.00201416
0.00256348
0.00146484
0.00238037
0.0012207
0.00189209
-0.000183105
0.00134277
-0.000854492
0.00170898
0.000305176
0.00201416
-0.00012207
0.00323486
0.00158691
0.00262451
0.0
0.00311279
0.00177002
0.00195312
0.000183105
0.00262451
0.00201416
0.00177002
0.00195312
0.00299072
0.00286865
0.00201416
0.0032959000000000005
0.00317383
0.00482178
0.00366211
0.00531006
0.00274658
0.00439453
0.00183105
0.00292969
0.000305176
0.00402832
0.00317383
0.00445557
0.00213623
0.00543213
0.00408936
0.004516600000000001
0.00305176
0.00537109
0.00427246
0.00402832
0.00372314
0.00445557
0.00445557
0.00341797
0.00476074
0.00469971
0.00604248
0.00463867
0.00561523
0.00280762
0.00482178
0.00268555
0.00421143
0.00219727
0.00585938
0.00427246
0.00531006
0.00244141
0.00512695
0.00378418
0.00427246
0.00244141
0.00463867
0.00317383
0.00213623
0.00170898
0.00244141
0.00250244
0.00201416
0.00360107
0.0032959000000000005
0.00488281
0.003479
0.00488281
0.00201416
0.00354004
0.000793457
0.00164795
-0.0012207
0.00262451
0.00170898
0.003479
0.00170898
0.00531006
0.00469971
0.00543213
0.00402832
0.00598145
0.00421143
0.00311279
0.00280762
0.00396729
0.00482178
0.00488281
0.00695801
0.00640869
0.00793457
0.00628662
0.00787354
0.0055542000000000005
0.0078125
0.00549316
0.00646973
0.00305176
0.00604248
0.00427246
0.00549316
0.00341797
0.00701904
0.00592041
0.00610352
0.00439453
0.00634766
0.00506592
0.00396729
0.00335693
0.00372314
0.00390625
0.00299072
0.00463867
0.00445557
0.00610352
0.00439453
0.0055542000000000005
0.00341797
0.00592041
0.00463867
0.006591800000000001
0.00390625
0.00683594
0.00476074
0.00543213
0.00286865
0.00604248
0.00445557
0.00421143
0.00262451
0.00463867
0.00445557
0.00415039
0.00402832
0.00506592
0.00518799
0.0043335
0.00585938
0.00506592
0.00665283
0.00506592
0.00653076
0.00396729
0.00634766
0.00427246
0.00567627
0.00268555
0.00592041
0.00427246
0.0055542000000000005
0.00323486
0.00653076
0.00482178
0.00457764
0.00280762
0.004516600000000001
0.00341797
0.00317383
0.00354004
0.00512695
0.00579834
0.00488281
0.00585938
0.00439453
0.00610352
0.00463867
0.006591800000000001
0.00445557
0.00732422
0.00585938
0.00744629
0.00421143
0.00720215
0.00561523
0.00671387
0.00445557
0.00732422
0.00531006
0.00469971
0.00256348
0.00463867
0.00390625
0.00341797
0.0032959000000000005
0.00378418
0.00378418
0.00231934
0.00360107
0.00274658
0.00463867
0.0032959000000000005
0.00518799
0.00262451
0.00488281
0.00280762
0.00415039
0.000976562
0.00445557
0.00299072
0.00421143
0.00164795
0.00488281
0.00305176
0.00305176
0.00134277
0.003479
0.00299072
0.00280762
0.00299072
0.003479
0.003479
0.00177002
0.00280762
0.00183105
0.00384521
0.00244141
0.00445557
0.00189209
0.00445557
0.00274658
0.00421143
0.00134277
0.00476074
0.00305176
0.00378418
0.0007324219999999999
0.00341797
0.00170898
0.00177002
0.000366211
0.00256348
0.00189209
0.00146484
0.00201416
0.00317383
0.00360107
0.00189209
0.00268555
0.00134277
0.00262451
0.000610352
0.00195312
-0.000915527
0.00177002
0.00012207
0.0020752
-0.0007324219999999999
0.00286865
0.00109863
0.00201416
-0.000671387
0.0022583000000000004
0.0007324219999999999
0.0007324219999999999
-0.0007324219999999999
0.00158691
0.0012207
0.000793457
0.0010376
0.00158691
0.00152588
0.0
0.00164795
0.00109863
0.00299072
0.00158691
0.00299072
0.00012207
0.00268555
0.000793457
0.00274658
-0.00012207
0.00305176
0.0010376
0.00195312
-0.000549316
0.00299072
0.00183105
0.00219727
0.000427246
0.00213623
0.0010376
0.000305176
0.000427246
0.00128174
0.00177002
0.000610352
0.00164795
0.000244141
0.00140381
-0.000183105
0.00115967
-0.00115967
0.00201416
0.000610352
0.00244141
-0.0007324219999999999
0.00238037
0.000427246
0.00164795
-0.000427246
0.00299072
0.00183105
0.00201416
0.000549316
0.00256348
0.00170898
0.000671387
0.000549316
0.000549316
0.0007324219999999999
-0.000549316
0.000854492
-0.000549316
0.00109863
-0.000610352
0.0007324219999999999
-0.00195312
0.0007324219999999999
-0.00128174
0.000610352
-0.00219727
0.00164795
0.000305176
0.00140381
-0.000854492
0.0022583000000000004
0.0007324219999999999
0.0007324219999999999
-0.000549316
0.00146484
0.000793457
-0.000244141
-0.000671387
-0.000488281
-0.000305176
-0.00146484
0.0
-0.000854492
0.00109863
-0.000488281
0.0012207
-0.00170898
0.000793457
-0.00134277
-0.000244141
-0.00335693
-0.000305176
-0.00189209
-0.000610352
-0.00280762
0.000183105
-0.00140381
-0.00152588
-0.00262451
-6.10352e-05
-0.000427246
-0.00115967
-0.000854492
-0.000671387
6.10352e-05
-0.000915527
0.000488281
-0.000915527
0.000488281
-0.00134277
0.000244141
-0.00268555
-0.000488281
-0.00250244
-0.00152588
-0.00439453
-0.000854492
-0.00219727
-0.00115967
-0.00341797
-0.000427246
-0.00170898
-0.00158691
-0.00274658
-0.000610352
-0.00146484
-0.00256348
-0.00250244
-0.00219727
-0.00170898
-0.00238037
-0.000793457
-0.00189209
0.00012207
-0.00146484
0.000305176
-0.00244141
0.000427246
-0.00128174
0.000305176
-0.00238037
0.000976562
-0.000793457
0.000366211
-0.00183105
0.00128174
-0.000305176
-0.000671387
-0.0020752
0.0
-0.000366211
-0.000549316
0.0
0.000793457
0.00115967
-0.000244141
0.000549316
-0.0012207
0.0
-0.00170898
0.000305176
-0.00177002
0.00152588
-6.10352e-05
0.00146484
-0.00170898
0.00177002
0.000488281
0.00140381
-0.000488281
0.0022583000000000004
0.0007324219999999999
0.000549316
-0.0007324219999999999
0.00115967
0.000671387
-0.000244141
-0.000244141
0.0
0.000183105
-0.00140381
0.00012207
-0.0012207
0.000793457
-0.0007324219999999999
0.00115967
-0.00158691
0.0012207
-0.000610352
0.0010376
-0.00158691
0.0020752
0.00012207
0.000488281
-0.00244141
0.000366211
-0.000854492
-0.000366211
-0.0012207
0.000854492
6.10352e-05
-0.000488281
6.10352e-05
0.000488281
0.00134277
6.10352e-05
0.000976562
-0.000915527
6.10352e-05
-0.00177002
0.000183105
-0.00201416
0.00128174
-0.000610352
0.000610352
-0.00231934
0.00109863
-0.000488281
0.000549316
-0.00170898
0.00189209
0.00115967
0.00134277
0.000305176
0.00183105
0.000793457
-0.000183105
6.10352e-05
0.000183105
0.000488281
-0.00128174
-0.000244141
-0.00195312
0.0
-0.00128174
0.000488281
-0.00177002
0.000671387
-0.00134277
-6.10352e-05
-0.00280762
0.0007324219999999999
-0.000549316
0.000305176
-0.00195312
0.000854492
-0.000305176
-0.000488281
-0.00140381
0.000488281
0.000244141
-0.000366211
6.10352e-05
0.00012207
0.000305176
-0.00140381
0.00012207
-0.00109863
0.00134277
-0.00012207
0.00152588
-0.0012207
0.00146484
-0.000244141
0.00109863
-0.00201416
0.0010376
-0.0012207
-0.000854492
-0.00317383
-0.00012207
-0.0012207
-0.00128174
-0.00250244
-0.000671387
-0.000854492
-0.00140381
-0.000915527
-0.000610352
-0.000427246
-0.00195312
-0.000915527
-0.00256348
-0.000671387
-0.0020752
-6.10352e-05
-0.00238037
0.000427246
-0.00183105
-0.000793457
-0.00390625
-0.000183105
-0.00128174
-0.000305176
-0.00244141
0.000671387
-0.000305176
0.000183105
-0.000671387
0.00152588
0.00109863
0.000183105
0.000183105
-6.10352e-05
-0.000244141
-0.00164795
-0.000244141
-0.00189209
-0.000366211
-0.00268555
-0.00109863
-0.00366211
-0.000610352
-0.00189209
-0.000244141
-0.00280762
0.000854492
-0.000671387
-0.00012207
-0.00280762
-0.000183105
-0.00219727
-0.00286865
-0.00408936
-0.00189209
-0.00183105
-0.00189209
-0.00128174
-0.00128174
-0.000915527
-0.00213623
-0.0007324219999999999
-0.0022583000000000004
-0.000610352
-0.0022583000000000004
-0.000427246
-0.00311279
-0.000305176
-0.00195312
-0.000366211
-0.00292969
0.000976562
-0.000610352
0.0
-0.00244141
0.000244141
-0.0010376
-0.0007324219999999999
-0.00140381
0.000610352
0.000610352
-0.000610352
-0.000549316
-0.000854492
-0.000671387
-0.00201416
-0.00012207
-0.00140381
0.0007324219999999999
-0.000854492
0.000610352
-0.00195312
0.000671387
-0.00134277
-6.10352e-05
-0.00311279
0.0
-0.00189209
-0.000854492
-0.0032959000000000005
-0.000549316
-0.00158691
-0.00177002
-0.00268555
-0.000976562
-0.00152588
-0.00219727
-0.00183105
-0.00158691
-0.0010376
-0.00250244
-0.0012207
-0.00250244
-0.000671387
-0.00219727
-0.000305176
-0.00256348
0.000427246
-0.000976562
0.000427246
-0.0022583000000000004
0.00109863
-0.000549316
6.10352e-05
-0.00231934
0.000427246
-0.000915527
-0.0012207
-0.0020752
-0.000183105
-0.000427246
-0.000976562
-0.000244141
-0.000427246
0.0
-0.00177002
-0.000427246
-0.00201416
0.000244141
-0.00115967
0.000854492
-0.00195312
0.000976562
-0.000915527
0.000183105
-0.00280762
0.000427246
-0.000793457
0.000183105
-0.0020752
0.000671387
-0.000793457
-0.000915527
-0.00134277
0.000976562
0.0007324219999999999
-0.000366211
-0.000366211
-0.00115967
-0.00115967
-0.00250244
-0.000427246
-0.00152588
0.0010376
-0.000305176
0.00152588
-0.00140381
0.00115967
-0.000915527
0.000366211
-0.00268555
0.0007324219999999999
-0.000793457
-0.00012207
-0.00256348
0.00012207
-0.00115967
-0.00115967
-0.00158691
0.000427246
-0.00012207
-0.00115967
-0.000610352
-0.000549316
0.000549316
-0.000854492
0.000427246
-0.00170898
-0.000244141
-0.00195312
-0.000183105
-0.00262451
0.000549316
-0.0010376
0.000488281
-0.00244141
0.000549316
-0.0012207
-0.000854492
-0.0032959000000000005
-0.000671387
-0.00189209
-0.00164795
-0.00164795
0.000427246
0.000183105
-0.000976562
-0.000427246
-0.000793457
0.0
-0.00140381
-6.10352e-05
-0.00219727
-0.000671387
-0.00256348
-0.0007324219999999999
-0.00323486
0.000183105
-0.0012207
0.00012207
-0.00244141
0.000915527
-0.000610352
-0.00012207
-0.00231934
0.0007324219999999999
-0.000671387
-0.000610352
-0.0010376
0.000854492
0.0007324219999999999
6.10352e-05
0.000183105
-0.000427246
0.0
-0.00158691
-0.000244141
-0.00170898
0.000793457
-0.00115967
0.000366211
-0.00256348
0.000610352
-0.000793457
0.000793457
-0.00219727
0.000671387
-0.00152588
-0.000976562
-0.0032959000000000005
-0.000793457
-0.00213623
-0.00238037
-0.00286865
-0.000671387
-0.000793457
-0.00158691
-0.000793457
-0.000671387
0.00012207
-0.00146484
-0.000610352
-0.00280762
-0.000976562
-0.00231934
-0.000305176
-0.00268555
0.0007324219999999999
-0.000854492
0.00012207
-0.00317383
-0.000549316
-0.00274658
-0.00195312
-0.00390625
-0.000915527
-0.0020752
-0.00238037
-0.00286865
-0.000854492
-0.000854492
-0.00164795
-0.00128174
-0.00195312
-0.00170898
-0.00366211
-0.0022583000000000004
-0.00415039
-0.00183105
-0.003479
-0.00146484
-0.00402832
-0.000671387
-0.00250244
-0.00128174
-0.00421143
-0.000915527
-0.0022583000000000004
-0.00146484
-0.00384521
-0.00134277
-0.00286865
-0.00299072
-0.00341797
-0.00152588
-0.00134277
-0.00195312
-0.000915527
-0.00128174
-0.0007324219999999999
-0.00256348
-0.0012207
-0.00286865
-0.000183105
-0.00109863
0.000854492
-0.0020752
6.10352e-05
-0.00244141
-0.00170898
-0.00445557
-0.000305176
-0.00128174
-0.000305176
-0.00244141
-6.10352e-05
-0.00128174
-0.00128174
-0.00140381
0.000610352
0.000427246
-0.000793457
-0.000427246
-0.000976562
-0.000366211
-0.00195312
-0.000305176
-0.00213623
0.000366211
-0.00115967
0.000366211
-0.00305176
-0.000549316
-0.00268555
-0.00134277
-0.00390625
-0.000610352
-0.0022583000000000004
-0.00170898
-0.00335693
-0.00012207
-0.000976562
-0.00115967
-0.00195312
-0.000488281
-0.000915527
-0.00177002
-0.000427246
-0.000549316
0.000244141
-0.00189209
-0.000915527
-0.00305176
-0.000366211
-0.0012207
0.0010376
-0.00164795
0.000610352
-0.00213623
-0.00134277
-0.00445557
-0.000854492
-0.00195312
-0.000976562
-0.00280762
-0.000183105
-0.00115967
-0.0012207
-0.00183105
-0.000427246
-0.000915527
-0.00219727
-0.00195312
-0.00231934
-0.00128174
-0.00238037
-0.000427246
-0.00213623
-0.000244141
-0.00250244
-0.00146484
-0.00457764
-0.00189209
-0.0032959000000000005
-0.00164795
-0.00415039
-0.000549316
-0.00177002
-0.0012207
-0.00341797
-0.000854492
-0.00250244
-0.00311279
-0.00390625
-0.00238037
-0.0020752
-0.00256348
-0.00134277
-0.00140381
-0.000244141
-0.00164795
-0.000305176
-0.00231934
-0.000244141
-0.00189209
0.000244141
-0.00219727
0.0012207
-0.000305176
0.000854492
-0.0022583000000000004
0.000549316
-0.00183105
-0.00170898
-0.00408936
-0.00134277
-0.00201416
-0.00134277
-0.00146484
0.000183105
-6.10352e-05
-0.00109863
-0.000244141
-0.000549316
0.000305176
-0.00146484
-0.000244141
-0.00274658
-0.000793457
-0.00250244
-0.000793457
-0.0032959000000000005
6.10352e-05
-0.00152588
0.00012207
-0.00250244
0.000366211
-0.0012207
-0.000610352
-0.00250244
0.000549316
-0.000488281
-0.0012207
-0.00201416
-0.0007324219999999999
-0.000793457
-0.00152588
-0.000427246
-0.000671387
0.0
-0.00158691
-0.000610352
-0.00311279
-0.00140381
-0.00317383
-0.00164795
-0.00445557
-0.00146484
-0.003479
-0.00219727
-0.00463867
-0.000976562
-0.00201416
-0.0012207
-0.00286865
6.10352e-05
-0.000549316
-0.000671387
-0.000854492
0.0
-0.000549316
-0.00170898
-0.000915527
-0.00140381
-0.000671387
-0.0022583000000000004
-0.000549316
-0.00256348
-0.000305176
-0.00177002
-0.000244141
-0.0032959000000000005
-0.000183105
-0.00195312
-0.000671387
-0.00360107
-0.000488281
-0.0022583000000000004
-0.00219727
-0.00421143
-0.00146484
-0.0020752
-0.00170898
-0.00164795
0.0
-0.000427246
-0.00177002
-0.00140381
-0.0020752
-0.0010376
-0.00238037
-0.0007324219999999999
-0.00262451
-0.000793457
-0.00274658
-0.00109863
-0.00372314
-0.000549316
-0.00250244
-0.00158691
-0.00445557
-0.000915527
-0.00213623
-0.000915527
-0.00244141
0.000183105
-0.0010376
-0.00152588
-0.00238037
-0.00115967
-0.00140381
-0.00238037
-0.00128174
-0.00152588
-0.00012207
-0.00134277
0.000488281
-0.00140381
0.000427246
-0.00164795
-0.000427246
-0.00317383
0.0
-0.00158691
-0.000244141
-0.00323486
0.00012207
-0.00128174
-0.00134277
-0.00354004
-0.00134277
-0.00250244
-0.00286865
-0.00305176
-0.00158691
-0.00170898
-0.00250244
-0.00164795
-0.00195312
-0.0007324219999999999
-0.0022583000000000004
-0.000610352
-0.00256348
-0.0007324219999999999
-0.00292969
-0.00158691
-0.00408936
-0.0007324219999999999
-0.00238037
-0.00140381
-0.00457764
-0.00146484
-0.00305176
-0.00244141
-0.00390625
-0.00128174
-0.0022583000000000004
-0.00292969
-0.00378418
-0.00317383
-0.00366211
-0.00469971
-0.00390625
-0.00408936
-0.00280762
-0.00366211
-0.00183105
-0.00360107
-0.0012207
-0.0032959000000000005
-0.00195312
-0.00506592
-0.00170898
-0.00299072
-0.0012207
-0.00354004
-0.00012207
-0.00177002
-0.00140381
-0.00378418
-0.000976562
-0.00195312
-0.00213623
-0.00262451
-0.00140381
-0.00201416
-0.00311279
-0.00256348
-0.00292969
-0.00158691
-0.00274658
-0.000915527
-0.00274658
-0.000549316
-0.00268555
-0.00146484
-0.00421143
-0.000976562
-0.00262451
-0.00128174
-0.00415039
-0.000854492
-0.00262451
-0.00213623
-0.00427246
-0.00219727
-0.00341797
-0.00421143
-0.00457764
-0.00335693
-0.00335693
-0.00408936
-0.00268555
-0.00238037
-0.00115967
-0.00274658
-0.00152588
-0.00408936
-0.00195312
-0.00408936
-0.00244141
-0.00531006
-0.00195312
-0.00360107
-0.00195312
-0.00439453
-0.00115967
-0.00274658
-0.00231934
-0.00384521
-0.000976562
-0.00177002
-0.0022583000000000004
-0.00292969
-0.00219727
-0.00268555
-0.00366211
-0.00305176
-0.00390625
-0.00305176
-0.00463867
-0.00311279
-0.00506592
-0.00286865
-0.004516600000000001
-0.00274658
-0.00543213
-0.00170898
-0.00305176
-0.00183105
-0.00482178
-0.00195312
-0.003479
-0.00280762
-0.00445557
-0.00164795
-0.00250244
-0.00268555
-0.00311279
-0.00170898
-0.0020752
-0.00317383
-0.00231934
-0.00274658
-0.00152588
-0.00286865
-0.00140381
-0.00354004
-0.00146484
-0.00335693
-0.00189209
-0.004516600000000001
-0.00134277
-0.00317383
-0.00231934
-0.0055542000000000005
-0.00244141
-0.00408936
-0.00372314
-0.00531006
-0.00250244
-0.00299072
-0.00280762
-0.00280762
-0.00128174
-0.00140381
-0.00280762
-0.00250244
-0.00372314
-0.00335693
-0.00524902
-0.00323486
-0.00476074
-0.00183105
-0.0032959000000000005
-0.00158691
-0.00457764
-0.00128174
-0.00317383
-0.00231934
-0.00543213
-0.00262451
-0.00421143
-0.003479
-0.00500488
-0.0022583000000000004
-0.00280762
-0.00335693
-0.00372314
-0.00244141
-0.00189209
-0.00201416
-0.000366211
-0.0010376
-0.000427246
-0.00280762
-0.00146484
-0.00360107
-0.0012207
-0.00286865
-0.0012207
-0.00384521
-0.000793457
-0.00268555
-0.00164795
-0.00402832
-0.000427246
-0.00158691
-0.00134277
-0.00341797
-0.00109863
-0.00213623
-0.00268555
-0.00317383
-0.00238037
-0.00286865
-0.00402832
-0.00274658
-0.00323486
-0.00213623
-0.00366211
-0.00262451
-0.00500488
-0.00256348
-0.00390625
-0.00213623
-0.00488281
-0.00164795
-0.00354004
-0.00238037
-0.00506592
-0.00189209
-0.00323486
-0.00311279
-0.00463867
-0.00231934
-0.00286865
-0.00317383
-0.00341797
-0.00274658
-0.00274658
-0.00390625
-0.00238037
-0.00231934
-0.000793457
-0.0022583000000000004
-0.000793457
-0.00311279
-0.00115967
-0.0032959000000000005
-0.00219727
-0.00561523
-0.00256348
-0.00408936
-0.00268555
-0.00518799
-0.00195312
-0.00317383
-0.00299072
-0.00506592
-0.0032959000000000005
-0.00463867
-0.00549316
-0.00567627
-0.00439453
-0.00396729
-0.00494385
-0.00360107
-0.00457764
-0.00335693
-0.00488281
-0.00305176
-0.00482178
-0.00231934
-0.00366211
-0.00189209
-0.00408936
-0.000366211
-0.00134277
0.0
-0.00299072
-0.000244141
-0.00238037
-0.00274658
-0.00469971
-0.0022583000000000004
-0.00292969
-0.00335693
-0.00317383
-0.00164795
-0.00134277
-0.00274658
-0.00183105
-0.00274658
-0.00152588
-0.00274658
-0.000793457
-0.00274658
-0.00012207
-0.00170898
-0.000366211
-0.00317383
-0.000183105
-0.0022583000000000004
-0.00128174
-0.00408936
-0.0007324219999999999
-0.00164795
-0.0007324219999999999
-0.00219727
0.000305176
-0.000671387
-0.00115967
-0.00115967
-0.000244141
-0.000549316
-0.0022583000000000004
-0.00164795
-0.00268555
-0.00189209
-0.00354004
-0.00189209
-0.00408936
-0.00140381
-0.00311279
-0.00164795
-0.00445557
-0.00140381
-0.00280762
-0.00146484
-0.00396729
-0.000976562
-0.00280762
-0.00286865
-0.00457764
-0.00213623
-0.00292969
-0.0032959000000000005
-0.0032959000000000005
-0.00256348
-0.00231934
-0.00311279
-0.00170898
-0.0022583000000000004
-0.0012207
-0.00292969
-0.00158691
-0.00402832
-0.00158691
-0.00317383
-0.00158691
-0.00457764
-0.00170898
-0.00360107
-0.00305176
-0.00561523
-0.00213623
-0.00311279
-0.00231934
-0.00366211
-0.00158691
-0.00268555
-0.0032959000000000005
-0.00341797
-0.00219727
-0.00219727
-0.0032959000000000005
-0.00213623
-0.00305176
-0.00183105
-0.00317383
-0.00140381
-0.00341797
-0.000976562
-0.00286865
-0.00128174
-0.00384521
0.0
-0.000915527
0.000549316
-0.00152588
0.00177002
0.00012207
6.10352e-05
-0.0022583000000000004
-0.000366211
-0.00128174
-0.0020752
-0.00231934
-0.00158691
-0.00170898
-0.00274658
-0.00128174
-0.00189209
-0.000915527
-0.00268555
-0.00152588
-0.00354004
-0.000854492
-0.00231934
-0.000488281
-0.00335693
-0.000427246
-0.00238037
-0.00134277
-0.00366211
-0.000488281
-0.00177002
-0.00201416
-0.00390625
-0.00195312
-0.00317383
-0.00335693
-0.00292969
-0.00189209
-0.00158691
-0.00280762
-0.00189209
-0.00280762
-0.00152588
-0.00311279
-0.00140381
-0.00341797
-0.000976562
-0.00280762
-0.00140381
-0.0043335
-0.000976562
-0.0020752
-0.0007324219999999999
-0.00323486
-0.000549316
-0.00183105
-0.00170898
-0.00292969
-0.000549316
-0.00146484
-0.00219727
-0.00238037
-0.00140381
-0.00146484
-0.00262451
-0.00195312
-0.00292969
-0.00195312
-0.00335693
-0.00170898
-0.00366211
-0.000854492
-0.00219727
-0.000549316
-0.00323486
-0.000183105
-0.00219727
-0.000976562
-0.00341797
0.00012207
-0.000976562
-0.000915527
-0.00280762
-0.0012207
-0.00231934
-0.00286865
-0.00274658
-0.00164795
-0.00152588
-0.00256348
-0.00152588
-0.00213623
-0.000793457
-0.00250244
-0.000915527
-0.00317383
-0.000427246
-0.00183105
-0.000366211
-0.00366211
-0.00115967
-0.00335693
-0.00268555
-0.00524902
-0.00189209
-0.00311279
-0.00262451
-0.00439453
-0.00238037
-0.00311279
-0.00335693
-0.0032959000000000005
-0.00244141
-0.00262451
-0.00390625
-0.00280762
-0.00354004
-0.00213623
-0.00354004
-0.00195312
-0.00384521
-0.00115967
-0.00292969
-0.00164795
-0.00488281
-0.00195312
-0.00323486
-0.00152588
-0.00360107
-0.000366211
-0.00183105
-0.00195312
-0.00372314
-0.0020752
-0.00262451
-0.00299072
-0.00268555
-0.00201416
-0.0022583000000000004
-0.00366211
-0.00274658
-0.00360107
-0.00238037
-0.00402832
-0.00256348
-0.00500488
-0.00238037
-0.00415039
-0.00292969
-0.00579834
-0.00268555
-0.00415039
-0.00274658
-0.00482178
-0.00140381
-0.00238037
-0.0022583000000000004
-0.00390625
-0.00201416
-0.00311279
-0.00335693
-0.00341797
-0.00286865
-0.00317383
-0.00500488
-0.00390625
-0.00469971
-0.00311279
-0.00415039
-0.0020752
-0.00372314
-0.000976562
-0.00286865
-0.00183105
-0.00512695
-0.00244141
-0.00427246
-0.00323486
-0.00561523
-0.00219727
-0.00274658
-0.00189209
-0.00311279
-0.00115967
-0.00244141
-0.00323486
-0.0032959000000000005
-0.00262451
-0.00256348
-0.00390625
-0.00280762
-0.00366211
-0.00280762
-0.00457764
-0.00317383
-0.00524902
-0.00195312
-0.00299072
-0.0012207
-0.0043335
-0.0012207
-0.00311279
-0.00238037
-0.00482178
-0.00183105
-0.00305176
-0.0022583000000000004
-0.00335693
-0.00128174
-0.0020752
-0.00280762
-0.003479
-0.00317383
-0.00354004
-0.00494385
-0.00360107
-0.00402832
-0.00195312
-0.00292969
-0.00140381
-0.00341797
-0.000976562
-0.00280762
-0.00177002
-0.00524902
-0.00268555
-0.00457764
-0.00317383
-0.00531006
-0.00164795
-0.00280762
-0.00256348
-0.00415039
-0.00189209
-0.00231934
-0.00262451
-0.00268555
-0.0022583000000000004
-0.00274658
-0.00390625
-0.0022583000000000004
-0.00268555
-0.000671387
-0.00262451
-0.00140381
-0.00415039
-0.0020752
-0.0043335
-0.00292969
-0.00585938
-0.00262451
-0.00421143
-0.00317383
-0.00585938
-0.00268555
-0.00390625
-0.00360107
-0.00463867
-0.00219727
-0.00268555
-0.00311279
-0.00317383
-0.00292969
-0.00323486
-0.00476074
-0.00335693
-0.00384521
-0.0022583000000000004
-0.00378418
-0.00244141
-0.00500488
-0.00268555
-0.004516600000000001
-0.00311279
-0.00585938
-0.00231934
-0.003479
-0.00189209
-0.00421143
-0.000610352
-0.00183105
-0.00177002
-0.003479
-0.00146484
-0.00238037
-0.00311279
-0.00317383
-0.00274658
-0.00280762
-0.00384521
-0.00244141
-0.00341797
-0.00189209
-0.003479
-0.00231934
-0.00457764
-0.00195312
-0.00384521
-0.00231934
-0.00537109
-0.00250244
-0.00390625
-0.00244141
-0.00408936
-0.000244141
-0.00152588
-0.00195312
-0.0043335
-0.00262451
-0.003479
-0.003479
-0.00292969
-0.00213623
-0.00213623
-0.00341797
-0.0020752
-0.00317383
-0.00164795
-0.00335693
-0.00219727
-0.00476074
-0.00189209
-0.00286865
-0.000793457
-0.003479
-0.0007324219999999999
-0.00299072
-0.00250244
-0.00494385
-0.00152588
-0.00250244
-0.0020752
-0.00335693
-0.000854492
-0.00146484
-0.00170898
-0.00164795
-0.00134277
-0.00177002
-0.00372314
-0.00280762
-0.00366211
-0.00183105
-0.00299072
-0.00140381
-0.00390625
-0.00170898
-0.00372314
-0.00262451
-0.00543213
-0.00183105
-0.00305176
-0.00164795
-0.00402832
-0.000976562
-0.00286865
-0.00335693
-0.00531006
-0.00335693
-0.00408936
-0.00439453
-0.00402832
-0.00305176
-0.00256348
-0.00354004
-0.00250244
-0.00341797
-0.00177002
-0.00335693
-0.0020752
-0.00476074
-0.00262451
-0.00463867
-0.00335693
-0.00616455
-0.00286865
-0.00427246
-0.00311279
-0.00543213
-0.00231934
-0.00366211
-0.0032959000000000005
-0.00476074
-0.00274658
-0.00360107
-0.00421143
-0.00415039
-0.00354004
-0.00311279
-0.00408936
-0.00244141
-0.00317383
-0.00152588
-0.00317383
-0.00146484
-0.00378418
-0.0012207
-0.00292969
-0.00158691
-0.00469971
-0.00140381
-0.00305176
-0.00244141
-0.00500488
-0.00183105
-0.00274658
-0.00238037
-0.00341797
-0.00140381
-0.00238037
-0.00335693
-0.00341797
-0.00299072
-0.00274658
-0.00366211
-0.00195312
-0.00286865
-0.00134277
-0.0032959000000000005
-0.00238037
-0.00469971
-0.00177002
-0.00311279
-0.00128174
-0.00439453
-0.00158691
-0.00372314
-0.00311279
-0.00567627
-0.0022583000000000004
-0.00335693
-0.00305176
-0.00445557
-0.00280762
-0.00372314
-0.00421143
-0.00341797
-0.00256348
-0.00213623
-0.00354004
-0.00238037
-0.00341797
-0.00201416
-0.00360107
-0.00195312
-0.0043335
-0.0012207
-0.00280762
-0.00109863
-0.00415039
-0.000854492
-0.00238037
-0.00128174
-0.00341797
-0.000244141
-0.00146484
-0.00164795
-0.00323486
-0.00146484
-0.0020752
-0.00219727
-0.00195312
-0.00170898
-0.0022583000000000004
-0.00402832
-0.00286865
-0.00396729
-0.00256348
-0.00457764
-0.00335693
-0.0055542000000000005
-0.00231934
-0.00323486
-0.000915527
-0.00372314
-0.0007324219999999999
-0.00268555
-0.0022583000000000004
-0.00488281
-0.00189209
-0.00280762
-0.00268555
-0.00366211
-0.00183105
-0.00292969
-0.00402832
-0.00396729
-0.00354004
-0.00280762
-0.00354004
-0.00164795
-0.00244141
-0.000976562
-0.00292969
-0.00134277
-0.00366211
-0.000976562
-0.00262451
-0.00115967
-0.00402832
-0.000183105
-0.00128174
-6.10352e-05
-0.00256348
0.00012207
-0.00152588
-0.00146484
-0.00262451
-0.000549316
-0.00115967
-0.0022583000000000004
-0.0022583000000000004
-0.0020752
-0.0022583000000000004
-0.0032959000000000005
-0.00146484
-0.00231934
-0.000183105
-0.00164795
-6.10352e-05
-0.00274658
-0.00012207
-0.00244141
-0.00140381
-0.00476074
-0.00158691
-0.00323486
-0.0022583000000000004
-0.00469971
-0.00158691
-0.00262451
-0.00244141
-0.00384521
-0.00219727
-0.00323486
-0.00396729
-0.00323486
-0.00219727
-0.00146484
-0.00250244
-0.00128174
-0.00262451
-0.00115967
-0.00311279
-0.00158691
-0.00390625
-0.00128174
-0.00262451
-0.0010376
-0.00390625
-0.0007324219999999999
-0.00244141
-0.00170898
-0.0043335
-0.00146484
-0.00250244
-0.00195312
-0.00317383
-0.000976562
-0.00158691
-0.00231934
-0.0022583000000000004
-0.00201416
-0.00213623
-0.00323486
-0.00183105
-0.00280762
-0.00128174
-0.00299072
-0.000976562
-0.00323486
-0.00012207
-0.00152588
-0.00012207
-0.00305176
-0.000244141
-0.00238037
-0.00189209
-0.00439453
-0.000915527
-0.00164795
-0.000915527
-0.00183105
0.000183105
-0.000854492
-0.00195312
-0.00195312
-0.00183105
-0.00164795
-0.00317383
-0.00195312
-0.00317383
-0.00146484
-0.00292969
-0.00140381
-0.00384521
-0.00140381
-0.00335693
-0.0020752
-0.00476074
-0.00109863
-0.00213623
-0.000915527
-0.00317383
-0.000244141
-0.00158691
-0.00146484
-0.00238037
-0.000427246
-0.00109863
-0.0022583000000000004
-0.00244141
-0.00244141
-0.00231934
-0.00335693
-0.00183105
-0.00299072
-0.00128174
-0.00268555
-0.00115967
-0.00384521
-0.00115967
-0.00305176
-0.00134277
-0.00378418
-0.000244141
-0.00170898
-0.000793457
-0.00311279
-0.000183105
-0.00152588
-0.00177002
-0.00335693
-0.00134277
-0.00213623
-0.00238037
-0.00158691
-0.000671387
-0.000610352
-0.00195312
-0.000610352
-0.00183105
-0.000366211
-0.00231934
-0.00128174
-0.00421143
-0.00177002
-0.00354004
-0.00213623
-0.00524902
-0.00177002
-0.0032959000000000005
-0.00195312
-0.00402832
-0.000915527
-0.00213623
-0.00231934
-0.003479
-0.00195312
-0.00250244
-0.00305176
-0.00305176
-0.00274658
-0.00250244
-0.00378418
-0.00238037
-0.00354004
-0.00183105
-0.00311279
-0.0012207
-0.00378418
-0.00170898
-0.00457764
-0.00384521
-0.00708008
-0.00354004
-0.004516600000000001
-0.00341797
-0.00567627
-0.00238037
-0.00305176
-0.00238037
-0.00323486
-0.00140381
-0.00219727
-0.00280762
-0.00219727
-0.00164795
-0.00152588
-0.00335693
-0.00280762
-0.00476074
-0.003479
-0.00518799
-0.00323486
-0.00500488
-0.00177002
-0.00299072
-0.00140381
-0.00421143
-0.00115967
-0.00292969
-0.00244141
-0.00494385
-0.00213623
-0.0032959000000000005
-0.0032959000000000005
-0.004516600000000001
-0.00244141
-0.00262451
-0.00292969
-0.00262451
-0.00268555
-0.00311279
-0.00506592
-0.00372314
-0.004516600000000001
-0.00256348
-0.00354004
-0.00134277
-0.003479
-0.0007324219999999999
-0.00268555
-0.00146484
-0.00421143
-0.000915527
-0.00231934
-0.00146484
-0.00415039
-0.0012207
-0.00250244
-0.00250244
-0.00360107
-0.00152588
-0.00201416
-0.00231934
-0.00177002
-0.00128174
-0.00128174
-0.00231934
-0.000854492
-0.00189209
-0.000366211
-0.00231934
-0.00146484
-0.00427246
-0.00189209
-0.00354004
-0.00195312
-0.004516600000000001
-0.000915527
-0.00231934
-0.00158691
-0.00396729
-0.00128174
-0.00262451
-0.00262451
-0.00384521
-0.00219727
-0.00317383
-0.00439453
-0.00463867
-0.00469971
-0.004516600000000001
-0.0055542000000000005
-0.00402832
-0.00488281
-0.00323486
-0.00457764
-0.00311279
-0.005737300000000001
-0.00311279
-0.00463867
-0.00299072
-0.00561523
-0.00231934
-0.00415039
-0.00323486
-0.00524902
-0.00164795
-0.00238037
-0.00238037
-0.00354004
-0.00219727
-0.00311279
-0.00415039
-0.00378418
-0.00354004
-0.00311279
-0.00421143
-0.00292969
-0.00439453
-0.00311279
-0.00512695
-0.00366211
-0.00616455
-0.00323486
-0.00494385
-0.00335693
-0.00604248
-0.00274658
-0.0043335
-0.00360107
-0.00592041
-0.00311279
-0.00421143
-0.00378418
-0.00427246
-0.0020752
-0.00244141
-0.00341797
-0.00311279
-0.00323486
-0.0032959000000000005
-0.00469971
-0.00354004
-0.00500488
-0.00341797
-0.00512695
-0.003479
-0.00549316
-0.00262451
-0.00415039
-0.00268555
-0.0055542000000000005
-0.00231934
-0.00390625
-0.0032959000000000005
-0.00579834
-0.00286865
-0.00402832
-0.00402832
-0.00506592
-0.00323486
-0.00415039
-0.004516600000000001
-0.00372314
-0.00317383
-0.00256348
-0.00402832
-0.00305176
-0.00476074
-0.00335693
-0.00488281
-0.00341797
-0.00598145
-0.00341797
-0.00531006
-0.00366211
-0.00604248
-0.00219727
-0.00354004
-0.00280762
-0.00549316
-0.00268555
-0.00396729
-0.00402832
-0.00500488
-0.00323486
-0.003479
-0.00378418
-0.00305176
-0.00280762
-0.00274658
-0.00384521
-0.0020752
-0.00323486
-0.00146484
-0.00335693
-0.0022583000000000004
-0.00494385
-0.00238037
-0.00378418
-0.00189209
-0.00408936
-0.000549316
-0.00177002
-0.0012207
-0.00402832
-0.00134277
-0.00274658
-0.00286865
-0.00421143
-0.00280762
-0.00384521
-0.00457764
-0.00390625
-0.00317383
-0.00238037
-0.00335693
-0.00183105
-0.00286865
-0.00115967
-0.00256348
-0.000976562
-0.00366211
-0.00158691
-0.00372314
-0.00262451
-0.00537109
-0.00244141
-0.00402832
-0.00354004
-0.005737300000000001
-0.00238037
-0.00299072
-0.00292969
-0.00408936
-0.00244141
-0.00317383
-0.00402832
-0.00335693
-0.00238037
-0.00164795
-0.00262451
-0.00134277
-0.00292969
-0.00158691
-0.00323486
-0.00152588
-0.00390625
-0.00109863
-0.00292969
-0.00158691
-0.00415039
-0.000915527
-0.00244141
-0.00152588
-0.00360107
-0.000549316
-0.00164795
-0.00158691
-0.00250244
-0.000854492
-0.00146484
-0.00238037
-0.00195312
-0.00213623
-0.00201416
-0.0032959000000000005
-0.00158691
-0.00268555
-0.000915527
-0.00292969
-0.00170898
-0.00439453
-0.00195312
-0.00372314
-0.00262451
-0.00549316
-0.00189209
-0.00280762
-0.00158691
-0.00384521
-0.00128174
-0.00262451
-0.00280762
-0.00402832
-0.00219727
-0.00268555
-0.00335693
-0.00262451
-0.00195312
-0.00170898
-0.00317383
-0.0020752
-0.00372314
-0.00213623
-0.00366211
-0.0022583000000000004
-0.00482178
-0.00164795
-0.00286865
-0.000915527
-0.00354004
-0.000427246
-0.00213623
-0.00183105
-0.00421143
-0.00183105
-0.0032959000000000005
-0.00305176
-0.00402832
-0.00177002
-0.00238037
-0.0032959000000000005
-0.00292969
-0.00274658
-0.00231934
-0.00354004
-0.00219727
-0.00366211
-0.00262451
-0.00469971
-0.00372314
-0.00622559
-0.00317383
-0.00445557
-0.00286865
-0.00561523
-0.00250244
-0.00390625
-0.00311279
-0.00482178
-0.00189209
-0.00305176
-0.00317383
-0.0043335
-0.00268555
-0.00323486
-0.00378418
-0.00323486
-0.00286865
-0.00219727
-0.00323486
-0.00170898
-0.00286865
-0.000976562
-0.00280762
-0.00158691
-0.00439453
-0.00170898
-0.00323486
-0.00170898
-0.00427246
-0.0012207
-0.00286865
-0.00195312
-0.00396729
-0.000854492
-0.00164795
-0.0020752
-0.0032959000000000005
-0.00201416
-0.00268555
-0.00323486
-0.00244141
-0.00164795
-0.0012207
-0.00292969
-0.00195312
-0.00378418
-0.00238037
-0.00396729
-0.00195312
-0.00439453
-0.00183105
-0.00390625
-0.00317383
-0.00640869
-0.00317383
-0.00439453
-0.00360107
-0.00628662
-0.00390625
-0.00531006
-0.00506592
-0.00537109
-0.00274658
-0.00262451
-0.00335693
-0.00305176
-0.00274658
-0.00213623
-0.00305176
-0.00146484
-0.00292969
-0.00152588
-0.00317383
-0.00183105
-0.00402832
-0.000976562
-0.00268555
-0.00152588
-0.00457764
-0.00140381
-0.00268555
-0.00213623
-0.004516600000000001
-0.00201416
-0.00335693
-0.0032959000000000005
-0.00390625
-0.00177002
-0.00195312
-0.00262451
-0.0022583000000000004
-0.00195312
-0.0012207
-0.00213623
-0.000427246
-0.00164795
-0.000244141
-0.00219727
-0.000610352
-0.00305176
0.00012207
-0.000915527
0.000488281
-0.00219727
0.0012207
-0.000244141
0.000244141
-0.00244141
0.000244141
-0.0012207
-0.000976562
-0.00170898
0.000183105
-0.000244141
-0.000915527
-0.000244141
-6.10352e-05
0.000610352
-0.0007324219999999999
0.000793457
-0.000610352
0.0007324219999999999
-0.00115967
0.000366211
-0.00201416
0.00152588
6.10352e-05
0.00158691
-0.00140381
0.00164795
0.000183105
0.0010376
-0.00140381
0.00140381
0.000366211
0.000366211
-0.00012207
0.00213623
0.00201416
0.00109863
0.00109863
0.000610352
0.000671387
-0.0007324219999999999
0.0007324219999999999
-0.0007324219999999999
0.000976562
-0.0007324219999999999
0.00109863
-0.00146484
0.00140381
-0.000183105
0.00140381
-0.00146484
0.00201416
0.000183105
0.000427246
-0.00238037
0.000366211
-0.0010376
-0.00115967
-0.00189209
0.000427246
0.000549316
0.0
0.000305176
0.000244141
0.000610352
-0.00115967
0.0
-0.00189209
-0.000305176
-0.0022583000000000004
-0.000305176
-0.00286865
0.000183105
-0.00170898
-0.000488281
-0.00341797
0.000427246
-0.000427246
0.000549316
-0.00170898
0.000915527
-0.000305176
-0.000244141
-0.00152588
-0.000366211
-0.00158691
-0.00231934
-0.00164795
-0.00164795
-0.00177002
-0.00354004
-0.00170898
-0.00244141
0.00012207
-0.00164795
-0.000427246
-0.0032959000000000005
-0.000183105
-0.00183105
-0.000366211
-0.00323486
0.000183105
-0.000976562
-0.000671387
-0.003479
-0.00146484
-0.00274658
-0.00238037
-0.00311279
-0.00146484
-0.00158691
-0.00219727
-0.0010376
-0.000915527
-0.000610352
-0.00238037
-0.000915527
-0.00213623
6.10352e-05
-0.00158691
-0.000244141
-0.00262451
0.000793457
-0.000610352
0.000915527
-0.00219727
0.000976562
-0.000305176
0.000671387
-0.00177002
0.000610352
-0.000915527
-0.00134277
-0.00213623
-0.00012207
-0.00012207
-0.000244141
0.000549316
0.000549316
0.0012207
-0.000366211
0.00128174
6.10352e-05
0.00219727
0.000427246
0.00213623
-0.000305176
0.00341797
0.00201416
0.00317383
0.0
0.00341797
0.00183105
0.00201416
-0.0012207
0.00146484
0.000671387
0.00134277
0.00109863
0.00250244
0.00170898
0.000671387
0.00170898
0.00256348
0.00402832
0.00311279
0.00476074
0.003479
0.00610352
0.00506592
0.00750732
0.00561523
0.0100098
0.00817871
0.00866699
0.00445557
0.00793457
0.00665283
0.00762939
0.00524902
0.00811768
0.006591800000000001
0.00640869
0.00531006
0.00738525
0.00762939
0.00732422
0.00872803
0.00891113
0.00964355
0.00762939
0.00860596
0.00579834
0.00738525
0.00506592
0.0067749
0.00439453
0.009033200000000002
0.00799561
0.00952148
0.00610352
0.0103149
0.00897217
0.0100708
0.00714111
0.00952148
0.00799561
0.00750732
0.00671387
0.00897217
0.00927734
0.00891113
0.0101929
0.00994873
0.0108032
0.00891113
0.0103149
0.00799561
0.0107422
0.00921631
0.0110474
0.00720215
0.00964355
0.00695801
0.00854492
0.00531006
0.00939941
0.00805664
0.00915527
0.00720215
0.0105591
0.00927734
0.009033200000000002
0.00750732
0.00921631
0.0088501
0.00750732
0.00787354
0.00787354
0.00958252
0.00823975
0.00964355
0.00689697
0.00860596
0.00622559
0.00799561
0.00457764
0.00823975
0.00646973
0.00854492
0.00549316
0.00958252
0.00744629
0.0078125
0.00488281
0.00860596
0.00787354
0.00775146
0.00634766
0.00732422
0.00701904
0.00598145
0.006591800000000001
0.00628662
0.00756836
0.00604248
0.00744629
0.00469971
0.00701904
0.004516600000000001
0.00592041
0.00183105
0.00506592
0.00292969
0.00469971
0.0012207
0.00537109
0.00280762
0.00274658
-0.0012207
0.00140381
0.000671387
0.0010376
0.0007324219999999999
0.00360107
0.00457764
0.00445557
0.00585938
0.00543213
0.00665283
0.00506592
0.00683594
0.00463867
0.00799561
0.00671387
0.00994873
0.00793457
0.013916
0.0140381
0.0175781
0.015319799999999996
0.0206909
0.0198975
0.0213623
0.0192261
0.0236206
0.0237427
0.0246582
0.0247803
0.027771
0.0289307
0.029480000000000006
0.0313721
0.0319214
0.0338135
0.0323486
0.034057599999999986
0.0308838
0.0321655
0.027832
0.0285034
0.0234375
0.026062
0.0219727
0.0220947
0.0175171
0.0219727
0.0211182
0.0238037
0.021667500000000003
0.0247192
0.0214844
0.0195923
0.0179443
0.0203857
0.0210571
0.0212402
0.022949200000000003
0.023193400000000003
0.0245972
0.0240479
0.0282593
0.0283813
0.0328979
0.0316772
0.034423800000000004
0.0303955
0.0317383
0.0264893
0.0266113
0.0236206
0.0308838
0.033508300000000005
0.0393677
0.0407715
0.0463257
0.0444336
0.0431519
0.0411987
0.0424805
0.0411987
0.0400391
0.0407104
0.0406494
0.0415039
0.0407104
0.0443115
0.0444946
0.0485229
0.0477295
0.0513916
0.048950199999999985
0.0512085
0.0471802
0.0479736
0.0442505
0.0474854
0.0456543
0.0487671
0.0499268
0.0563965
0.0571289
0.0585938
0.0585938
0.06024169999999999
0.0587158
0.0575562
0.0594482
0.06048580000000001
0.060729999999999985
0.0587769
0.060729999999999985
0.0596924
0.0620117
0.0601196
0.062439
0.0595703
0.061767599999999985
0.0586548
0.0601807
0.0570679
0.06060790000000001
0.0582275
0.0588379
0.05688480000000001
0.0596313
0.0574951
0.05780030000000001
0.0583496
0.0610352
0.06024169999999999
0.0592041
0.060546900000000015
0.060791
0.060729999999999985
0.0588379
0.0610962
0.0596924
0.060729999999999985
0.0586548
0.0613403
0.0591431
0.0615845
0.0583496
0.0592651
0.0558472
0.0582886
0.0557251
0.0561523
0.0543823
0.0565186
0.0534058
0.052124
0.0513306
0.0525513
0.0513916
0.0502319
0.0515747
0.0513916
0.049987800000000006
0.0466919
0.048217800000000005
0.0464478
0.0481567
0.0463867
0.048645
0.0457153
0.0471802
0.0437012
0.045043900000000005
0.0426025
0.0459595
0.0446167
0.0457153
0.0442505
0.0461426
0.0435791
0.0428467
0.0432129
0.0449219
0.0436401
0.0424805
0.043945300000000014
0.043396
0.0425415
0.040405300000000005
0.0430298
0.041748
0.0436401
0.0424194
0.0454102
0.0432739
0.0453491
0.0426025
0.0441284
0.0419312
0.0445557
0.0421143
0.0423584
0.0408325
0.043457
0.042175300000000006
0.0426636
0.043945300000000014
0.045166000000000005
0.0430298
0.0410767
0.042175300000000006
0.0415649
0.0410156
0.0388184
0.0410156
0.0387573
0.0389404
0.036438
0.0386353
0.0363159
0.0377808
0.034789999999999995
0.0358276
0.0332642
0.0356445
0.0332642
0.034179699999999986
0.0332031
0.0353394
0.0328979
0.032531700000000004
0.0325928
0.033081099999999995
0.0307007
0.0289307
0.0306396
0.0300903
0.0294189
0.0273438
0.0294189
0.026916500000000003
0.0268555
0.0235596
0.0250854
0.022033700000000003
0.0232544
0.020752
0.022399900000000004
0.0206299
0.0227661
0.0201416
0.0201416
0.0187378
0.0198364
0.016723599999999998
0.015686000000000002
0.016235399999999997
0.017028799999999997
0.015686000000000002
0.0139771
0.015808100000000002
0.014221200000000003
0.0128784
0.0100708
0.0125122
0.0107422
0.0110474
0.00817871
0.0098877
0.00671387
0.00823975
0.00561523
0.00695801
0.00506592
0.00732422
0.00494385
0.00537109
0.00463867
0.006591800000000001
0.00457764
0.00415039
0.00494385
0.00524902
0.00299072
0.000793457
0.00274658
0.00231934
0.00177002
-0.000183105
0.00256348
0.000244141
0.000488281
-0.0020752
0.000244141
-0.00152588
0.000671387
-0.00146484
-0.000366211
-0.0022583000000000004
-0.000305176
-0.00311279
-0.00286865
-0.00335693
-0.00152588
-0.003479
-0.00488281
-0.00463867
-0.00463867
-0.00634766
-0.00750732
-0.00482178
-0.00500488
-0.00543213
-0.00738525
-0.00500488
-0.00714111
-0.00714111
-0.0098877
-0.00750732
-0.00921631
-0.00665283
-0.00823975
-0.00622559
-0.00805664
-0.00622559
-0.00897217
-0.00897217
-0.00915527
-0.00714111
-0.00872803
-0.00909424
-0.00762939
-0.00708008
-0.00897217
-0.0112305
-0.00939941
-0.010376
-0.0112915
-0.0135498
-0.0111084
-0.0131226
-0.0131226
-0.015319799999999996
-0.0126343
-0.0139771
-0.0111694
-0.0126953
-0.0110474
-0.0128174
-0.0109253
-0.0135498
-0.013855
-0.0140381
-0.011718799999999998
-0.0126953
-0.0126953
-0.0109863
-0.010437
-0.0125122
-0.0145874
-0.0124512
-0.0130005
-0.0134277
-0.0149536
-0.0115967
-0.0128174
-0.0119019
-0.014099100000000003
-0.0112915
-0.0128174
-0.00994873
-0.0115967
-0.00976562
-0.011657700000000002
-0.0100708
-0.012207
-0.011657700000000002
-0.0114746
-0.00933838
-0.0109863
-0.0119019
-0.010681200000000002
-0.00982666
-0.010498
-0.0112915
-0.00799561
-0.00842285
-0.00897217
-0.011718799999999998
-0.00909424
-0.0109863
-0.0100708
-0.0119629
-0.00909424
-0.0109863
-0.00915527
-0.0114746
-0.0100098
-0.0113525
-0.00897217
-0.0109863
-0.010437
-0.0103149
-0.00848389
-0.0098877
-0.0101318
-0.00823975
-0.00738525
-0.00823975
-0.00946045
-0.00701904
-0.00756836
-0.00836182
-0.0108032
-0.00775146
-0.00933838
-0.00836182
-0.0103149
-0.00823975
-0.0109253
-0.00976562
-0.012207
-0.010437
-0.0112305
-0.00872803
-0.0108643
-0.0108643
-0.0114746
-0.00994873
-0.0119629
-0.0125732
-0.010681200000000002
-0.00952148
-0.0101318
-0.0108032
-0.00738525
-0.00817871
-0.00909424
-0.0114136
-0.00848389
-0.0098877
-0.00878906
-0.0102539
-0.00683594
-0.0078125
-0.00543213
-0.00732422
-0.00604248
-0.0078125
-0.00634766
-0.00866699
-0.00830078
-0.00823975
-0.00683594
-0.00872803
-0.00939941
-0.00738525
-0.00665283
-0.00756836
-0.00878906
-0.00524902
-0.00598145
-0.00720215
-0.00976562
-0.00726318
-0.009033200000000002
-0.00848389
-0.0105591
-0.00762939
-0.00933838
-0.00799561
-0.0101929
-0.00872803
-0.0098877
-0.00805664
-0.0103149
-0.0102539
-0.0098877
-0.00848389
-0.0103149
-0.0111694
-0.00939941
-0.00946045
-0.0112915
-0.0130615
-0.0102539
-0.0113525
-0.0123291
-0.0151367
-0.0123901
-0.014892600000000002
-0.0147095
-0.0174561
-0.0155029
-0.0175171
-0.015808100000000002
-0.0188599
-0.0187988
-0.0213013
-0.0203247
-0.0234375
-0.0245361
-0.0257568
-0.0250854
-0.0274658
-0.0291138
-0.028198200000000007
-0.02771
-0.0291748
-0.031066900000000005
-0.0289307
-0.030334500000000007
-0.0314941
-0.0351562
-0.034179699999999986
-0.0368652
-0.036438
-0.039978
-0.0395508
-0.0431519
-0.041992199999999986
-0.0448608
-0.0449219
-0.0478516
-0.0464478
-0.0496216
-0.051696800000000015
-0.053833000000000006
-0.0528564
-0.0551758
-0.05780030000000001
-0.059021
-0.0598755
-0.062439
-0.0664062
-0.0667725
-0.0684814
-0.0690918
-0.0720215
-0.071228
-0.0738525
-0.0734253
-0.076416
-0.0760498
-0.07910160000000001
-0.07714839999999999
-0.08050539999999999
-0.081604
-0.0852051
-0.0827637
-0.085022
-0.0861206
-0.08843989999999999
-0.08636469999999999
-0.0879517
-0.0892944
-0.08953860000000001
-0.08789060000000001
-0.0888062
-0.0914917
-0.0921631
-0.093811
-0.0944824
-0.0978394
-0.0974731
-0.0999146
-0.0986328
-0.101746
-0.101685
-0.105164
-0.102844
-0.105652
-0.106018
-0.10986300000000003
-0.106689
-0.108948
-0.109619
-0.111877
-0.10791
-0.107788
-0.107971
-0.108765
-0.106812
-0.1073
-0.10888699999999997
-0.108521
-0.107727
-0.10583499999999997
-0.10675
-0.105652
-0.107544
-0.105164
-0.10675
-0.104736
-0.107056
-0.102783
-0.103943
-0.102478
-0.104858
-0.0994873
-0.0997925
-0.0984497
-0.100708
-0.0967407
-0.0977173
-0.0978394
-0.0980835
-0.0943604
-0.0924683
-0.0917969
-0.0901489
-0.0894775
-0.0874634
-0.08782960000000001
-0.08496089999999999
-0.0856934
-0.08221439999999999
-0.083313
-0.0812378
-0.0836182
-0.0783081
-0.07879639999999999
-0.0764771
-0.0792847
-0.07470700000000001
-0.07507319999999999
-0.07336430000000001
-0.0748901
-0.0701294
-0.0700073
-0.06927489999999999
-0.0703735
-0.0682373
-0.0684814
-0.06951900000000001
-0.06854249999999999
-0.06762699999999999
-0.06542970000000001
-0.065979
-0.0640869
-0.0662842
-0.0635986
-0.06530760000000001
-0.06329349999999999
-0.065979
-0.0609131
-0.0618896
-0.0599976
-0.0640259
-0.0603027
-0.0625
-0.0620117
-0.0648193
-0.060791
-0.0612793
-0.0612183
-0.0623779
-0.0603638
-0.0601807
-0.060424800000000015
-0.0591431
-0.0583496
-0.0556641
-0.0558472
-0.0532227
-0.0545044
-0.0504761
-0.0512695
-0.0481567
-0.050415
-0.0447388
-0.0454102
-0.0430908
-0.0462646
-0.0400391
-0.0391846
-0.0378418
-0.0427856
-0.0422974
-0.0449829
-0.0460815
-0.0477905
-0.0460205
-0.0443726
-0.0438843
-0.0423584
-0.043396
-0.0415649
-0.0426636
-0.0402832
-0.0424194
-0.0384521
-0.0388794
-0.0355835
-0.0393066
-0.036254900000000014
-0.0388794
-0.036987300000000015
-0.0405273
-0.0368042
-0.0389404
-0.0386353
-0.0420532
-0.0404663
-0.0429077
-0.0441284
-0.0457153
-0.0443726
-0.0444946
-0.0460205
-0.0454102
-0.0462036
-0.0447388
-0.0464478
-0.0452271
-0.0482788
-0.0463257
-0.0482788
-0.045898400000000006
-0.0494385
-0.0455322
-0.0474854
-0.0460205
-0.0494995
-0.045898400000000006
-0.0470581
-0.0452271
-0.0471191
-0.0444946
-0.0462036
-0.0454102
-0.043335000000000005
-0.0380249
-0.0370483
-0.038147
-0.0354004
-0.031189
-0.026367200000000004
-0.0271606
-0.025817900000000005
-0.0279541
-0.0236816
-0.0245972
-0.022522
-0.0272827
-0.0246582
-0.0275879
-0.026062
-0.0296631
-0.0249634
-0.0266113
-0.0252075
-0.0279541
-0.0244141
-0.026367200000000004
-0.0274658
-0.0292358
-0.0271606
-0.0272827
-0.0283203
-0.0279541
-0.0285645
-0.0280762
-0.0300293
-0.0286865
-0.03125
-0.0288086
-0.0314331
-0.0294189
-0.0333862
-0.029541
-0.031860400000000004
-0.0300903
-0.034179699999999986
-0.0299072
-0.0320435
-0.030761700000000006
-0.03302
-0.028442400000000007
-0.0287476
-0.0282593
-0.0289307
-0.0255737
-0.0237427
-0.0222778
-0.0195312
-0.0176392
-0.013855
-0.0129395
-0.00848389
-0.00793457
-0.00195312
-0.000854492
0.00390625
0.00231934
0.00793457
0.00708008
0.0103149
0.00793457
0.0134888
0.0128784
0.0147095
0.0125122
0.016845699999999998
0.0169067
0.0175781
0.016113299999999997
0.016967799999999998
0.0159912
0.0142822
0.014892600000000002
0.014221200000000003
0.0155029
0.013916
0.015930200000000002
0.0134888
0.0159912
0.0133667
0.014892600000000002
0.0107422
0.013855
0.0112305
0.012207
0.00787354
0.0115356
0.00964355
0.010681200000000002
0.00787354
0.010437
0.00854492
0.00744629
0.00585938
0.00665283
0.00524902
0.00354004
0.00360107
0.00262451
0.00299072
0.000366211
0.00158691
-0.00134277
0.000610352
-0.00195312
-0.000305176
-0.00421143
-0.000976562
-0.00341797
-0.00195312
-0.00518799
-0.0012207
-0.00292969
-0.00219727
-0.00500488
-0.0022583000000000004
-0.00372314
-0.00390625
-0.00482178
-0.00354004
-0.00408936
-0.00518799
-0.00439453
-0.00457764
-0.0032959000000000005
-0.00463867
-0.00238037
-0.00372314
-0.000854492
-0.00268555
-0.000427246
-0.00292969
0.00146484
0.000427246
0.00262451
-0.000366211
0.00384521
0.0022583000000000004
0.00311279
0.000610352
0.00354004
0.0020752
0.00152588
0.0
0.00109863
0.000366211
-0.000427246
0.000671387
0.000671387
0.00177002
-0.000244141
0.000793457
-0.0020752
-0.000427246
-0.00280762
-0.000671387
-0.00323486
0.000976562
-0.000610352
0.000427246
-0.00366211
-0.0007324219999999999
-0.00299072
-0.0022583000000000004
-0.00469971
-0.00152588
-0.00262451
-0.00286865
-0.00390625
-0.00201416
-0.00183105
-0.00262451
-0.00201416
-0.00250244
-0.00213623
-0.00396729
-0.00250244
-0.004516600000000001
-0.00262451
-0.00488281
-0.00335693
-0.00640869
-0.00231934
-0.00323486
-0.0010376
-0.00372314
0.000183105
-0.00109863
-0.00012207
-0.0020752
0.00177002
0.00134277
0.00140381
6.10352e-05
0.0012207
0.000549316
-0.000366211
0.000305176
0.00012207
0.00128174
-0.000427246
0.00128174
-0.000915527
0.00146484
-0.000183105
0.00183105
-0.000793457
0.00299072
0.000976562
0.00213623
-0.000976562
0.00262451
0.00109863
0.00158691
-0.00115967
0.00128174
-0.000244141
-0.0007324219999999999
-0.00231934
-0.0012207
-0.00195312
-0.00311279
-0.00262451
-0.00317383
-0.00231934
-0.0043335
-0.00305176
-0.00488281
-0.00280762
-0.00488281
-0.00335693
-0.00653076
-0.00354004
-0.00537109
-0.00354004
-0.0067749
-0.00299072
-0.00457764
-0.00366211
-0.00592041
-0.00274658
-0.003479
-0.00354004
-0.00427246
-0.00213623
-0.00177002
-0.00195312
-0.0007324219999999999
-0.000488281
0.000976562
-0.000427246
0.00109863
-0.000793457
0.00158691
0.00012207
0.00244141
-0.000183105
0.00317383
0.000610352
0.00195312
-0.000915527
0.00372314
0.00292969
0.0043335
0.00195312
0.00500488
0.00402832
0.00421143
0.0032959000000000005
0.00506592
0.00476074
0.00366211
0.00445557
0.0043335
0.00537109
0.00384521
0.0055542000000000005
0.00384521
0.00653076
0.00476074
0.006591800000000001
0.00341797
0.00714111
0.00537109
0.00732422
0.00537109
0.00927734
0.00622559
0.00512695
0.00128174
0.00408936
0.00366211
0.00537109
0.00445557
0.00482178
0.00372314
0.00201416
0.00231934
0.00323486
0.00476074
0.00195312
0.00177002
-0.000305176
0.00402832
0.00476074
0.00878906
0.00500488
0.00531006
0.00109863
0.00317383
0.00195312
0.00701904
0.00494385
0.00354004
-0.000976562
0.00262451
0.00402832
0.00665283
0.00653076
0.00714111
0.00457764
0.00115967
0.000305176
-0.00012207
0.00183105
0.00164795
0.00439453
0.00274658
0.00457764
0.00231934
0.00427246
0.00238037
0.00708008
0.00531006
0.00604248
0.000610352
0.00213623
-0.00128174
0.00012207
-0.000488281
0.0055542000000000005
0.006591800000000001
0.0067749
0.00494385
0.0055542000000000005
0.00427246
0.00305176
0.00335693
0.00256348
0.00268555
0.0010376
0.00360107
0.00311279
0.00646973
0.00506592
0.00628662
0.00244141
0.00488281
0.00219727
0.0032959000000000005
0.0
0.00378418
0.00238037
0.00335693
0.00140381
0.00561523
0.00561523
0.00610352
0.00512695
0.00598145
0.00445557
0.00195312
0.00134277
0.000854492
0.00219727
0.00128174
0.00384521
0.00244141
0.00494385
0.00354004
0.00561523
0.00274658
0.00598145
0.00360107
0.00476074
0.00146484
0.00512695
0.00341797
0.00396729
0.00115967
0.004516600000000001
0.00323486
0.00286865
0.00164795
0.00311279
0.00262451
0.00140381
0.00170898
0.00140381
0.00256348
0.00164795
0.00384521
0.00213623
0.00457764
0.00262451
0.00506592
0.00231934
0.00640869
0.00439453
0.00585938
0.00231934
0.00616455
0.004516600000000001
0.00506592
0.00195312
0.00488281
0.00390625
0.00427246
0.00341797
0.00518799
0.00506592
0.00415039
0.00488281
0.00518799
0.00628662
0.00469971
0.00665283
0.00476074
0.00732422
0.00561523
0.00714111
0.00396729
0.00738525
0.00524902
0.00689697
0.00390625
0.00860596
0.00750732
0.00830078
0.00506592
0.00744629
0.00512695
0.00439453
0.0032959000000000005
0.00653076
0.00909424
0.0112305
0.0136108
0.012756299999999998
0.0105591
0.0043335
0.0020752
-0.00189209
0.00170898
0.00311279
0.00909424
0.00958252
0.0151367
0.0125122
0.0113525
0.00415039
0.00518799
0.00195312
0.00317383
0.00146484
0.0055542000000000005
0.00390625
0.00311279
0.00219727
0.00598145
0.00823975
0.00976562
0.0110474
0.00933838
0.00701904
0.000976562
-0.00164795
-0.00610352
-0.00274658
-0.000793457
0.00598145
0.00708008
0.0126953
0.0103149
0.0106201
0.00476074
0.00537109
6.10352e-05
-0.00244141
-0.00646973
-0.0020752
-0.000610352
0.00354004
0.00738525
0.013305700000000002
0.014526400000000004
0.0119629
0.00811768
0.00299072
0.000793457
-0.00170898
0.000183105
-0.00128174
0.0012207
0.000488281
0.00488281
0.00445557
0.0100098
0.00817871
0.00866699
0.00299072
0.00445557
-0.000488281
-0.00183105
-0.00494385
0.000366211
0.00286865
0.0055542000000000005
0.00567627
0.00714111
0.00628662
0.00457764
0.00408936
0.00189209
0.00012207
-0.00354004
-0.00219727
-0.00311279
0.00140381
0.00164795
0.00616455
0.00494385
0.0100708
0.00793457
0.00836182
0.00311279
0.00604248
0.00354004
0.003479
6.10352e-05
0.00323486
0.00280762
0.00421143
0.00402832
0.00585938
0.00476074
0.00231934
0.00152588
0.000610352
0.00201416
0.000793457
0.00354004
0.00244141
0.005737300000000001
0.00402832
0.00585938
0.00183105
0.00524902
0.00280762
0.0043335
0.000793457
0.00531006
0.00402832
0.00506592
0.00219727
0.00500488
0.00335693
0.00286865
0.00140381
0.00311279
0.00274658
0.00152588
0.00213623
0.00189209
0.00305176
0.00158691
0.00378418
0.00177002
0.00476074
0.00256348
0.00421143
0.000854492
0.004516600000000001
0.0022583000000000004
0.00390625
0.000244141
0.00488281
0.00354004
0.00506592
0.00213623
0.00488281
0.00305176
0.00256348
0.00109863
0.00311279
0.0032959000000000005
0.00311279
0.00439453
0.00445557
0.00531006
0.00292969
0.00396729
0.00109863
0.00305176
0.000610352
0.00280762
-0.000183105
0.004516600000000001
0.00299072
0.00524902
0.00158691
0.00537109
0.0032959000000000005
0.00378418
0.000488281
0.00360107
0.00262451
0.00299072
0.0022583000000000004
0.00457764
0.0043335
0.00335693
0.00360107
0.0032959000000000005
0.00427246
0.00262451
0.00396729
0.0012207
0.00366211
0.00177002
0.004516600000000001
0.00183105
0.00610352
0.00439453
0.00640869
0.00268555
0.00695801
0.00494385
0.00598145
0.00280762
0.00585938
0.00415039
0.00378418
0.00299072
0.00549316
0.00537109
0.00390625
0.00354004
0.00262451
0.00323486
0.00170898
0.00384521
0.00213623
0.00494385
0.0032959000000000005
0.00598145
0.00280762
0.00628662
0.00323486
0.00335693
-0.00189209
0.000671387
-0.00189209
-0.0012207
-0.00378418
-0.000305176
-0.00158691
-0.00170898
-0.00274658
-0.000244141
-0.000183105
-0.000488281
0.0
-0.000549316
0.000305176
-0.0012207
0.000671387
-0.00109863
0.00134277
-0.00115967
0.0007324219999999999
-0.00250244
0.00152588
0.0
0.0020752
-0.00134277
0.00292969
0.0012207
0.00213623
-0.000671387
0.00250244
0.00164795
0.00268555
0.00195312
0.00390625
0.00256348
-0.000183105
-0.0007324219999999999
-0.00140381
-0.00109863
-0.00250244
0.00109863
0.00140381
0.00622559
0.00610352
0.00909424
0.00640869
0.0112305
0.00946045
0.0100708
0.00439453
0.00689697
0.00457764
0.00531006
0.00335693
0.00860596
0.00982666
0.0125122
0.0136719
0.0159912
0.0143433
0.0101929
0.00671387
0.00213623
6.10352e-05
-0.00231934
0.000183105
0.000183105
0.00518799
0.00543213
0.009033200000000002
0.005737300000000001
0.00872803
0.00408936
0.00354004
-0.00244141
0.0007324219999999999
-0.000793457
0.00134277
-0.000427246
0.00427246
0.00445557
0.00579834
0.00543213
0.00726318
0.00622559
0.0032959000000000005
0.0010376
-0.00256348
-0.00457764
-0.00775146
-0.00506592
-0.00469971
0.00134277
0.00219727
0.00616455
0.00244141
0.00390625
-0.00219727
-0.00402832
-0.00946045
-0.00457764
-0.00354004
0.0010376
0.000915527
0.00604248
0.00531006
0.00457764
0.00219727
0.00280762
0.00134277
-0.000793457
-0.00115967
-0.00183105
-0.000366211
-0.000976562
0.00213623
0.00201416
0.00579834
0.00402832
0.00592041
0.00128174
0.00402832
0.00134277
0.00305176
-0.000976562
0.00292969
0.000671387
0.00146484
-0.00109863
0.00299072
0.00219727
0.00250244
0.00128174
0.00286865
0.00177002
0.000183105
0.00012207
-0.000427246
0.000427246
-0.00140381
0.0007324219999999999
-0.000915527
0.00250244
0.0012207
0.00396729
0.000549316
0.00421143
0.00134277
0.00238037
-0.00195312
0.00177002
-0.000427246
0.000671387
-0.0022583000000000004
0.00140381
0.0
0.000183105
-0.000915527
0.00140381
0.0010376
6.10352e-05
0.000549316
0.000549316
0.00201416
0.000610352
0.00250244
0.00012207
0.00195312
-0.000976562
0.000854492
-0.00286865
0.00128174
-0.000549316
0.00177002
-0.00146484
0.00323486
0.00189209
0.00317383
0.000366211
0.00378418
0.00195312
0.00115967
-0.000915527
0.000549316
0.000183105
-0.000183105
0.0010376
0.00146484
0.00244141
0.000305176
0.0012207
-0.00152588
0.000976562
-0.0007324219999999999
0.00170898
-0.00177002
0.00177002
-0.00115967
-0.000183105
-0.004516600000000001
-0.000305176
-0.00189209
-0.000305176
-0.00238037
0.00164795
0.000671387
0.0007324219999999999
-0.000549316
0.00134277
0.000793457
-0.000183105
0.000366211
-6.10352e-05
0.000488281
-0.00146484
-6.10352e-05
-0.00262451
-0.00012207
-0.00170898
0.00164795
-0.000671387
0.003479
0.000549316
0.00146484
-0.0032959000000000005
0.000549316
-0.00164795
-0.000793457
-0.00408936
-0.000305176
-0.0012207
-0.000427246
-0.000671387
0.0020752
0.00195312
0.0012207
0.00170898
0.00146484
0.00164795
-0.000915527
-0.00012207
-0.00317383
-0.00128174
-0.00402832
-0.00170898
-0.00500488
-0.00012207
-0.00140381
0.00134277
-0.00177002
0.00250244
-0.00012207
-0.000183105
-0.004516600000000001
-0.00201416
-0.00372314
-0.00335693
-0.00421143
-0.00158691
-0.00183105
-0.00231934
-0.00134277
-0.000854492
0.000610352
-0.000854492
0.000610352
-0.0022583000000000004
-0.000366211
-0.00317383
-0.00115967
-0.00427246
0.000671387
-0.000366211
0.00274658
6.10352e-05
0.00463867
0.00231934
0.00201416
-0.00256348
-0.00115967
-0.00360107
-0.00396729
-0.00494385
-0.0020752
-0.00189209
-0.00231934
-0.00164795
-0.00158691
-0.000793457
-0.00262451
-0.000976562
-0.00262451
0.000671387
-0.000915527
0.00170898
-0.00164795
0.00238037
0.0
0.00177002
-0.00219727
0.00189209
-0.000183105
0.0010376
-0.00170898
0.00238037
0.00152588
0.00170898
0.000305176
0.0020752
0.00109863
-0.000244141
-0.000183105
-0.000488281
0.000549316
-0.0007324219999999999
0.00152588
-0.000305176
0.00231934
-6.10352e-05
0.00213623
-0.00109863
0.00317383
0.0010376
0.00268555
-0.00146484
0.00256348
0.000610352
0.00219727
0.0
0.0043335
0.00286865
0.00256348
0.000854492
0.0032959000000000005
0.00305176
0.00183105
0.00146484
0.000244141
0.000305176
-0.00134277
0.00109863
-0.000244141
0.00274658
0.000854492
0.00299072
-0.000976562
0.0020752
-0.00152588
-0.000549316
-0.00494385
-0.000793457
-0.00274658
-0.00128174
-0.00354004
0.00115967
0.00134277
0.00286865
0.00231934
0.00427246
0.00274658
0.0
-0.000976562
-0.00189209
-0.000976562
-0.00183105
0.00128174
0.000488281
0.00390625
0.00213623
0.0043335
0.000610352
0.00421143
0.00140381
0.00250244
-0.00256348
0.000854492
-0.00134277
0.000183105
-0.00146484
0.00366211
0.00341797
0.00402832
0.0022583000000000004
0.00396729
0.00268555
0.0010376
0.000915527
0.000366211
0.000854492
-0.00140381
-0.000183105
-0.00244141
0.000366211
-0.00152588
0.000671387
-0.00268555
0.00152588
-0.00012207
0.00201416
-0.00170898
0.00244141
0.000305176
0.00109863
-0.00183105
0.00256348
0.00164795
0.0022583000000000004
0.000854492
0.00274658
0.00183105
0.000183105
-0.00012207
-0.0007324219999999999
-6.10352e-05
-0.00134277
0.000915527
-0.000915527
0.00128174
-0.00164795
-0.000244141
-0.00408936
-6.10352e-05
-0.00177002
0.000244141
-0.00372314
0.000183105
-0.0022583000000000004
-0.0010376
-0.00372314
0.000549316
-0.000305176
0.000183105
-0.00146484
0.000427246
-0.000366211
-0.00134277
-0.00128174
-0.0020752
-0.00177002
-0.00390625
-0.00250244
-0.00445557
-0.00140381
-0.00305176
-0.000671387
-0.0043335
-0.000427246
-0.00286865
-0.00134277
-0.00579834
-0.0020752
-0.00402832
-0.00311279
-0.00592041
-0.00256348
-0.00354004
-0.00280762
-0.003479
-0.00134277
-0.00115967
-0.00170898
-0.000793457
-0.0010376
-0.000183105
-0.00170898
0.0
-0.00219727
0.00012207
-0.00158691
0.000671387
-0.00274658
0.000488281
-0.00170898
0.000305176
-0.003479
-0.000305176
