CH7
-0.00335693
-0.00341797
-0.003479
-0.00335693
-0.003479
-0.0032959000000000005
-0.00335693
-0.00323486
-0.00335693
-0.003479
-0.00372314
-0.00354004
-0.00335693
-0.0032959000000000005
-0.00323486
-0.00317383
-0.00317383
-0.00323486
-0.0032959000000000005
-0.00335693
-0.00335693
-0.0032959000000000005
-0.00335693
-0.00335693
-0.0032959000000000005
-0.00341797
-0.003479
-0.003479
-0.00366211
-0.00372314
-0.00360107
-0.00354004
-0.0032959000000000005
-0.00335693
-0.00360107
-0.00366211
-0.00360107
-0.00360107
-0.00366211
-0.00360107
-0.00354004
-0.00366211
-0.00360107
-0.00360107
-0.003479
-0.00335693
-0.00335693
-0.00341797
-0.003479
-0.003479
-0.00354004
-0.00354004
-0.00335693
-0.00323486
-0.00311279
-0.00317383
-0.0032959000000000005
-0.00305176
-0.00311279
-0.00317383
-0.0032959000000000005
-0.00335693
-0.00317383
-0.00323486
-0.00323486
-0.00323486
-0.00323486
-0.00335693
-0.003479
-0.00354004
-0.00354004
-0.00360107
-0.00354004
-0.00335693
-0.00317383
-0.00323486
-0.00317383
-0.0032959000000000005
-0.00323486
-0.00311279
-0.00335693
-0.00335693
-0.0032959000000000005
-0.00323486
-0.00323486
-0.0032959000000000005
-0.00323486
-0.00341797
-0.0032959000000000005
-0.00354004
-0.003479
-0.00354004
-0.00354004
-0.00341797
-0.00323486
-0.00323486
-0.0032959000000000005
-0.00335693
-0.00335693
-0.00317383
-0.00323486
-0.00335693
-0.0032959000000000005
-0.00323486
-0.0032959000000000005
-0.0032959000000000005
-0.00323486
-0.00341797
-0.00335693
-0.00354004
-0.00366211
-0.003479
-0.0032959000000000005
-0.003479
-0.00335693
-0.00317383
-0.00317383
-0.0032959000000000005
-0.00323486
-0.0032959000000000005
-0.00317383
-0.00323486
-0.00335693
-0.00354004
-0.00335693
-0.003479
-0.00341797
-0.00335693
-0.00354004
-0.00360107
-0.00360107
-0.00360107
-0.00341797
-0.00323486
-0.0032959000000000005
-0.00323486
-0.0032959000000000005
-0.00335693
-0.00341797
-0.003479
-0.0032959000000000005
-0.00335693
-0.0032959000000000005
-0.00341797
-0.00341797
-0.00335693
-0.00341797
-0.00366211
-0.00378418
-0.00372314
-0.00366211
-0.003479
-0.00341797
-0.00323486
-0.00335693
-0.00335693
-0.003479
-0.00335693
-0.0032959000000000005
-0.00335693
-0.0032959000000000005
-0.00323486
-0.00311279
-0.0032959000000000005
-0.00335693
-0.0032959000000000005
-0.00323486
-0.00354004
-0.00366211
-0.00366211
-0.00360107
-0.00354004
-0.003479
-0.003479
-0.00323486
-0.00323486
-0.0032959000000000005
-0.003479
-0.0032959000000000005
-0.003479
-0.00335693
-0.003479
-0.0032959000000000005
-0.00335693
-0.00341797
-0.00341797
-0.0032959000000000005
-0.003479
-0.00360107
-0.00372314
-0.00372314
-0.00360107
-0.00360107
-0.00341797
-0.00323486
-0.00341797
-0.00335693
-0.00341797
-0.00341797
-0.00335693
-0.0032959000000000005
-0.0032959000000000005
-0.00323486
-0.00335693
-0.00335693
-0.00341797
-0.00341797
-0.00341797
-0.003479
-0.00366211
-0.00378418
-0.00366211
-0.003479
-0.003479
-0.00341797
-0.00317383
-0.00323486
-0.0032959000000000005
-0.00335693
-0.0032959000000000005
-0.00354004
-0.003479
-0.00354004
-0.00335693
-0.00335693
-0.00335693
-0.003479
-0.00372314
-0.00366211
-0.00354004
-0.00354004
-0.003479
-0.00335693
-0.00323486
-0.00335693
-0.00335693
-0.00335693
-0.00323486
-0.00317383
-0.00323486
-0.00323486
-0.00323486
-0.0032959000000000005
-0.003479
-0.00341797
-0.003479
-0.00372314
-0.00378418
-0.00378418
-0.00384521
-0.00384521
-0.00372314
-0.00366211
-0.00360107
-0.00360107
-0.003479
-0.00341797
-0.0032959000000000005
-0.00323486
-0.00311279
-0.00317383
-0.00323486
-0.00317383
-0.00335693
-0.00335693
-0.00323486
-0.0032959000000000005
-0.00341797
-0.00341797
-0.00366211
-0.00360107
-0.00360107
-0.003479
-0.003479
-0.00354004
-0.00366211
-0.00372314
-0.00366211
-0.00372314
-0.00372314
-0.00372314
-0.00366211
-0.00341797
-0.00354004
-0.00335693
-0.00341797
-0.00323486
-0.00317383
-0.00341797
-0.003479
-0.00360107
-0.00354004
-0.00341797
-0.00335693
-0.00335693
-0.00311279
-0.00317383
-0.00317383
-0.00317383
-0.00323486
-0.0032959000000000005
-0.00323486
-0.00335693
-0.00317383
-0.0032959000000000005
-0.00317383
-0.00341797
-0.003479
-0.003479
-0.003479
-0.00372314
-0.00354004
-0.00335693
-0.00335693
-0.003479
-0.00335693
-0.00311279
-0.0032959000000000005
-0.00335693
-0.0032959000000000005
-0.0032959000000000005
-0.00341797
-0.003479
-0.00341797
-0.003479
-0.003479
-0.00372314
-0.00360107
-0.00372314
-0.00372314
-0.00378418
-0.00372314
-0.00360107
-0.00354004
-0.003479
-0.003479
-0.0032959000000000005
-0.00323486
-0.00323486
-0.00317383
-0.00311279
-0.0032959000000000005
-0.0032959000000000005
-0.00335693
-0.00335693
-0.00335693
-0.0032959000000000005
-0.00341797
-0.00360107
-0.003479
-0.003479
-0.003479
-0.00335693
-0.0032959000000000005
-0.00323486
-0.00323486
-0.00335693
-0.0032959000000000005
-0.0032959000000000005
-0.003479
-0.003479
-0.00335693
-0.00323486
-0.0032959000000000005
-0.00323486
-0.00323486
-0.00305176
-0.00323486
-0.003479
-0.00335693
-0.00378418
-0.00360107
-0.00354004
-0.00354004
-0.00341797
-0.00317383
-0.0032959000000000005
-0.0032959000000000005
-0.0032959000000000005
-0.00335693
-0.00341797
-0.00335693
-0.0032959000000000005
-0.0032959000000000005
-0.00335693
-0.0032959000000000005
-0.00335693
-0.00317383
-0.003479
-0.0032959000000000005
-0.00341797
-0.00323486
-0.00317383
-0.00317383
-0.00317383
-0.00317383
-0.00341797
-0.00354004
-0.00360107
-0.003479
-0.00341797
-0.00335693
-0.00323486
-0.00317383
-0.00317383
-0.00335693
-0.00317383
-0.00311279
-0.00317383
-0.00354004
-0.00360107
-0.003479
-0.0032959000000000005
-0.00341797
-0.00323486
-0.00323486
-0.00317383
-0.00323486
-0.00335693
-0.00323486
-0.0032959000000000005
-0.00335693
-0.00323486
-0.00323486
-0.00305176
-0.0032959000000000005
-0.00335693
-0.00341797
-0.003479
-0.00341797
-0.00360107
-0.00360107
-0.00335693
-0.00323486
-0.00341797
-0.003479
-0.00366211
-0.00372314
-0.00390625
-0.00390625
-0.00366211
-0.00360107
-0.003479
-0.00354004
-0.003479
-0.0032959000000000005
-0.00323486
-0.00335693
-0.003479
-0.00341797
-0.00360107
-0.00360107
-0.003479
-0.00341797
-0.0032959000000000005
-0.0032959000000000005
-0.00317383
-0.00323486
-0.0032959000000000005
-0.00317383
-0.00341797
-0.00323486
-0.0032959000000000005
-0.00335693
-0.00341797
-0.0032959000000000005
-0.0032959000000000005
-0.00335693
-0.0032959000000000005
-0.00360107
-0.00354004
-0.00354004
-0.00341797
-0.00323486
-0.00317383
-0.0032959000000000005
-0.00335693
-0.0032959000000000005
-0.00335693
-0.00335693
-0.00341797
-0.00335693
-0.00323486
-0.00317383
-0.00323486
-0.00323486
-0.00323486
-0.003479
-0.00366211
-0.00378418
-0.00360107
-0.00341797
-0.00341797
-0.00335693
-0.0032959000000000005
-0.0032959000000000005
-0.00335693
-0.003479
-0.003479
-0.003479
-0.00360107
-0.00372314
-0.00360107
-0.00360107
-0.00360107
-0.00360107
-0.00366211
-0.00354004
-0.00372314
-0.00366211
-0.00378418
-0.00360107
-0.00354004
-0.00354004
-0.00360107
-0.00354004
-0.003479
-0.00366211
-0.00360107
-0.00354004
-0.00366211
-0.00366211
-0.00354004
-0.00354004
-0.00354004
-0.00360107
-0.00354004
-0.00354004
-0.00335693
-0.00341797
-0.00354004
-0.00372314
-0.00354004
-0.00360107
-0.00366211
-0.003479
-0.00366211
-0.003479
-0.00366211
-0.00366211
-0.00360107
-0.00354004
-0.00335693
-0.00354004
-0.00341797
-0.00335693
-0.003479
-0.003479
-0.00354004
-0.00360107
-0.003479
-0.003479
-0.00341797
-0.00341797
-0.00335693
-0.00354004
-0.00354004
-0.00341797
-0.00335693
-0.00354004
-0.003479
-0.003479
-0.00341797
-0.00354004
-0.00354004
-0.00354004
-0.00335693
-0.00341797
-0.00341797
-0.0032959000000000005
-0.00341797
-0.00341797
-0.0032959000000000005
-0.00335693
-0.00335693
-0.00323486
-0.00335693
-0.00341797
-0.00341797
-0.003479
-0.003479
-0.003479
-0.00335693
-0.00323486
-0.00335693
-0.0032959000000000005
-0.0032959000000000005
-0.0032959000000000005
-0.00341797
-0.00366211
-0.00354004
-0.00335693
-0.00335693
-0.00335693
-0.00317383
-0.00317383
-0.00335693
-0.003479
-0.003479
-0.00323486
-0.00335693
-0.00335693
-0.00335693
-0.00341797
-0.0032959000000000005
-0.00341797
-0.00366211
-0.00360107
-0.00366211
-0.00372314
-0.00366211
-0.00341797
-0.003479
-0.00335693
-0.00341797
-0.00341797
-0.00341797
-0.00354004
-0.003479
-0.00354004
-0.003479
-0.00341797
-0.00360107
-0.00354004
-0.003479
-0.003479
-0.00341797
-0.00341797
-0.00360107
-0.00341797
-0.00360107
-0.00360107
-0.003479
-0.0032959000000000005
-0.003479
-0.00354004
-0.00354004
-0.003479
-0.00341797
-0.00354004
-0.00335693
-0.00323486
-0.00341797
-0.00341797
-0.003479
-0.00341797
-0.00335693
-0.00341797
-0.00341797
-0.00360107
-0.00341797
-0.003479
-0.003479
-0.00341797
-0.00341797
-0.00354004
-0.00354004
-0.00360107
-0.00360107
-0.003479
-0.00366211
-0.00354004
-0.003479
-0.00341797
-0.00366211
-0.00341797
-0.00341797
-0.003479
-0.00372314
-0.00366211
-0.00366211
-0.00360107
-0.00360107
-0.00372314
-0.00372314
-0.00378418
-0.00372314
-0.00372314
-0.00366211
-0.00366211
-0.00372314
-0.00366211
-0.00341797
-0.00335693
-0.00366211
-0.00366211
-0.00360107
-0.00360107
-0.00384521
-0.00372314
-0.00372314
-0.00354004
-0.00366211
-0.00384521
-0.00384521
-0.00372314
-0.00384521
-0.00366211
-0.00384521
-0.00366211
-0.00360107
-0.00360107
-0.00366211
-0.00354004
-0.00372314
-0.00366211
-0.00366211
-0.00366211
-0.00366211
-0.00366211
-0.00372314
-0.00360107
-0.00354004
-0.003479
-0.00354004
-0.00360107
-0.00354004
-0.00366211
-0.00360107
-0.00360107
-0.00372314
-0.00360107
-0.00366211
-0.00360107
-0.00378418
-0.00378418
-0.00390625
-0.00390625
-0.00384521
-0.00372314
-0.00360107
-0.00354004
-0.00335693
-0.00341797
-0.0032959000000000005
-0.00335693
-0.00335693
-0.0032959000000000005
-0.00335693
-0.00335693
-0.0032959000000000005
-0.00323486
-0.00335693
-0.00360107
-0.00354004
-0.003479
-0.00354004
-0.00372314
-0.00378418
-0.00372314
-0.00360107
-0.00341797
-0.003479
-0.0032959000000000005
-0.0032959000000000005
-0.00354004
-0.00354004
-0.00354004
-0.003479
-0.00360107
-0.00366211
-0.00366211
-0.00360107
-0.00360107
-0.00360107
-0.00360107
-0.003479
-0.003479
-0.00372314
-0.00372314
-0.00378418
-0.00360107
-0.00360107
-0.003479
-0.00335693
-0.00335693
-0.00335693
-0.003479
-0.003479
-0.00360107
-0.00354004
-0.00366211
-0.00354004
-0.00360107
-0.00360107
-0.00372314
-0.00372314
-0.003479
-0.00366211
-0.00360107
-0.00366211
-0.00354004
-0.00360107
-0.00366211
-0.00354004
-0.00341797
-0.00366211
-0.00360107
-0.00354004
-0.00354004
-0.00354004
-0.00360107
-0.003479
-0.00360107
-0.00372314
-0.00366211
-0.00372314
-0.00372314
-0.00384521
-0.00390625
-0.00402832
-0.00360107
-0.00354004
-0.0032959000000000005
-0.00323486
-0.00323486
-0.0032959000000000005
-0.003479
-0.00360107
-0.00360107
-0.00366211
-0.00366211
-0.00366211
-0.00360107
-0.00360107
-0.00360107
-0.00384521
-0.00378418
-0.00372314
-0.00372314
-0.00378418
-0.00372314
-0.00366211
-0.00360107
-0.00354004
-0.00366211
-0.00341797
-0.00354004
-0.003479
-0.00360107
-0.00366211
-0.00366211
-0.00360107
-0.00372314
-0.00366211
-0.00372314
-0.00372314
-0.00378418
-0.00360107
-0.00360107
-0.00360107
-0.00366211
-0.00372314
-0.00354004
-0.00360107
-0.00360107
-0.00372314
-0.00354004
-0.00360107
-0.00372314
-0.00378418
-0.00372314
-0.00360107
-0.00360107
-0.00366211
-0.00360107
-0.00366211
-0.00366211
-0.00384521
-0.00378418
-0.00366211
-0.00366211
-0.00366211
-0.00360107
-0.00341797
-0.00341797
-0.00366211
-0.00360107
-0.00354004
-0.00354004
-0.00366211
-0.00372314
-0.00360107
-0.00360107
-0.00372314
-0.00366211
-0.00366211
-0.00378418
-0.00378418
-0.00384521
-0.00372314
-0.00360107
-0.00372314
-0.00366211
-0.00372314
-0.00366211
-0.00354004
-0.00366211
-0.00360107
-0.00360107
-0.00354004
-0.003479
-0.00366211
-0.00372314
-0.00360107
-0.00384521
-0.00378418
-0.00378418
-0.00372314
-0.00384521
-0.00372314
-0.00360107
-0.00354004
-0.003479
-0.00335693
-0.00341797
-0.00341797
-0.00341797
-0.00323486
-0.00323486
-0.0032959000000000005
-0.00335693
-0.0032959000000000005
-0.00335693
-0.0032959000000000005
-0.0032959000000000005
-0.00354004
-0.003479
-0.003479
-0.00366211
-0.00354004
-0.00317383
-0.00311279
-0.00311279
-0.00323486
-0.00335693
-0.00335693
-0.00323486
-0.00317383
-0.00335693
-0.00323486
-0.00323486
-0.00317383
-0.0032959000000000005
-0.00317383
-0.0032959000000000005
-0.00335693
-0.00341797
-0.00360107
-0.003479
-0.00335693
-0.003479
-0.00335693
-0.00323486
-0.00305176
-0.00335693
-0.00335693
-0.00341797
-0.0032959000000000005
-0.00341797
-0.0032959000000000005
-0.00341797
-0.00335693
-0.003479
-0.00354004
-0.00360107
-0.00360107
-0.00372314
-0.00366211
-0.00366211
-0.00354004
-0.00360107
-0.003479
-0.003479
-0.00341797
-0.00335693
-0.003479
-0.003479
-0.00354004
-0.00366211
-0.00366211
-0.00360107
-0.00354004
-0.00335693
-0.00354004
-0.00360107
-0.00341797
-0.003479
-0.00360107
-0.00366211
-0.00372314
-0.00360107
-0.00360107
-0.003479
-0.00360107
-0.00341797
-0.00360107
-0.00366211
-0.00366211
-0.00360107
-0.00360107
-0.00360107
-0.00366211
-0.00335693
-0.003479
-0.00360107
-0.00372314
-0.00372314
-0.00366211
-0.00360107
-0.00354004
-0.00354004
-0.003479
-0.003479
-0.00360107
-0.00360107
-0.00372314
-0.00366211
-0.00360107
-0.00354004
-0.00366211
-0.00354004
-0.00366211
-0.00372314
-0.00372314
-0.00360107
-0.00372314
-0.00390625
-0.00366211
-0.00390625
-0.00378418
-0.00396729
-0.00384521
-0.00366211
-0.00366211
-0.00384521
-0.00366211
-0.00384521
-0.00396729
-0.00390625
-0.00384521
-0.00366211
-0.00372314
-0.00366211
-0.00366211
-0.00366211
-0.00360107
-0.00372314
-0.00372314
-0.00354004
-0.00354004
-0.00366211
-0.00372314
-0.00372314
-0.00366211
-0.00378418
-0.00378418
-0.00366211
-0.00360107
-0.00366211
-0.00372314
-0.00354004
-0.00366211
-0.00372314
-0.00372314
-0.00372314
-0.00372314
-0.00372314
-0.00390625
-0.00372314
-0.00372314
-0.00366211
-0.00372314
-0.00360107
-0.00360107
-0.00360107
-0.00378418
-0.00396729
-0.00396729
-0.00378418
-0.00390625
-0.00372314
-0.00372314
-0.00372314
-0.00384521
-0.00390625
-0.00366211
-0.00372314
-0.00372314
-0.00378418
-0.00390625
-0.00384521
-0.00390625
-0.00378418
-0.00366211
-0.00366211
-0.00384521
-0.00378418
-0.00372314
-0.00366211
-0.00366211
-0.00366211
-0.00372314
-0.00384521
-0.00354004
-0.00384521
-0.00378418
-0.00366211
-0.00384521
-0.00366211
-0.00378418
-0.00372314
-0.00366211
-0.00366211
-0.00360107
-0.00378418
-0.00366211
-0.00366211
-0.00384521
-0.00378418
-0.00378418
-0.00372314
-0.00384521
-0.00366211
-0.00372314
-0.003479
-0.00360107
-0.00354004
-0.00335693
-0.00323486
-0.00317383
-0.00311279
-0.00317383
-0.00317383
-0.00335693
-0.00354004
-0.00372314
-0.00360107
-0.00384521
-0.00378418
-0.00366211
-0.00360107
-0.00384521
-0.00396729
-0.00396729
-0.00372314
-0.00372314
-0.00366211
-0.00366211
-0.00354004
-0.00366211
-0.00360107
-0.00378418
-0.00372314
-0.00360107
-0.00372314
-0.00366211
-0.00366211
-0.00378418
-0.00372314
-0.00378418
-0.00384521
-0.00396729
-0.00390625
-0.00378418
-0.00396729
-0.00372314
-0.00372314
-0.00390625
-0.00402832
-0.00384521
-0.00378418
-0.00384521
-0.00384521
-0.00360107
-0.00354004
-0.00378418
-0.00384521
-0.00384521
-0.00372314
-0.00384521
-0.00384521
-0.00372314
-0.00372314
-0.00372314
-0.00384521
-0.00372314
-0.00390625
-0.00390625
-0.00390625
-0.00384521
-0.00384521
-0.00372314
-0.00384521
-0.00384521
-0.00378418
-0.00372314
-0.00372314
-0.00384521
-0.00384521
-0.00372314
-0.00384521
-0.00390625
-0.00372314
-0.00390625
-0.00390625
-0.00384521
-0.00372314
-0.00360107
-0.00354004
-0.00384521
-0.00372314
-0.00372314
-0.00372314
-0.00372314
-0.00378418
-0.00366211
-0.00372314
-0.00384521
-0.00378418
-0.00384521
-0.00384521
-0.00384521
-0.00378418
-0.00366211
-0.00354004
-0.00378418
-0.00366211
-0.00360107
-0.00366211
-0.00372314
-0.00366211
-0.00378418
-0.00384521
-0.00372314
-0.00378418
-0.00372314
-0.00360107
-0.00372314
-0.00360107
-0.00372314
-0.00372314
-0.00366211
-0.00372314
-0.00384521
-0.00396729
-0.00372314
-0.00366211
-0.00360107
-0.00354004
-0.00354004
-0.00360107
-0.00366211
-0.00354004
-0.00354004
-0.00372314
-0.00378418
-0.00366211
-0.00354004
-0.00366211
-0.00372314
-0.00390625
-0.00372314
-0.00384521
-0.00390625
-0.00366211
-0.00372314
-0.00366211
-0.00378418
-0.00372314
-0.00372314
-0.00360107
-0.00372314
-0.00372314
-0.00360107
-0.00366211
-0.00378418
-0.00378418
-0.00390625
-0.00372314
-0.00378418
-0.00378418
-0.00372314
-0.00366211
-0.00366211
-0.00366211
-0.00366211
-0.00354004
-0.00360107
-0.00360107
-0.00360107
-0.00366211
-0.00360107
-0.00366211
-0.00354004
-0.003479
-0.00354004
-0.003479
-0.00360107
-0.00366211
-0.00360107
-0.00390625
-0.00366211
-0.00372314
-0.003479
-0.00360107
-0.00354004
-0.00366211
-0.00366211
-0.00378418
-0.00384521
-0.00384521
-0.00378418
-0.00372314
-0.00372314
-0.00372314
-0.00366211
-0.00366211
-0.00372314
-0.00378418
-0.00366211
-0.00366211
-0.00378418
-0.00378418
-0.00372314
-0.00384521
-0.00372314
-0.00372314
-0.00372314
-0.00366211
-0.00378418
-0.00384521
-0.00372314
-0.00360107
-0.00372314
-0.00366211
-0.00354004
-0.00378418
-0.00372314
-0.00384521
-0.00390625
-0.00390625
-0.00384521
-0.00384521
-0.00390625
-0.00384521
-0.00372314
-0.00390625
-0.00384521
-0.00366211
-0.00366211
-0.00366211
-0.00384521
-0.00372314
-0.00378418
-0.00384521
-0.00384521
-0.00360107
-0.00366211
-0.00372314
-0.00360107
-0.00366211
-0.003479
-0.003479
-0.00341797
-0.00354004
-0.00354004
-0.00341797
-0.00366211
-0.00360107
-0.00354004
-0.00354004
-0.00366211
-0.00366211
-0.00372314
-0.00366211
-0.00378418
-0.00396729
-0.00390625
-0.00366211
-0.00360107
-0.00384521
-0.00366211
-0.00360107
-0.00384521
-0.00360107
-0.00366211
-0.00372314
-0.00372314
-0.00372314
-0.00372314
-0.00366211
-0.00384521
-0.00396729
-0.00378418
-0.00390625
-0.00360107
-0.00372314
-0.00378418
-0.00366211
-0.00354004
-0.00354004
-0.00354004
-0.00366211
-0.003479
-0.00366211
-0.00360107
-0.00366211
-0.00360107
-0.00360107
-0.00360107
-0.00360107
-0.00360107
-0.00378418
-0.00366211
-0.00360107
-0.00366211
-0.00354004
-0.00372314
-0.00384521
-0.00360107
-0.00366211
-0.00372314
-0.00378418
-0.00366211
-0.00366211
-0.00360107
-0.00384521
-0.00366211
-0.00360107
-0.00378418
-0.00372314
-0.00354004
-0.003479
-0.00354004
-0.00366211
-0.00366211
-0.00372314
-0.00372314
-0.00360107
-0.00360107
-0.00372314
-0.00360107
-0.00372314
-0.00384521
-0.00372314
-0.00372314
-0.00372314
-0.00372314
-0.00354004
-0.00354004
-0.003479
-0.003479
-0.00354004
-0.00366211
-0.00360107
-0.00360107
-0.00354004
-0.00360107
-0.00360107
-0.00372314
-0.00366211
-0.00360107
-0.00354004
-0.00372314
-0.00372314
-0.00360107
-0.00360107
-0.00372314
-0.00372314
-0.00384521
-0.00378418
-0.00378418
-0.00372314
-0.00354004
-0.003479
-0.00354004
-0.00360107
-0.00366211
-0.00366211
-0.003479
-0.003479
-0.00360107
-0.00360107
-0.00354004
-0.00360107
-0.00354004
-0.00341797
-0.00366211
-0.00390625
-0.00360107
-0.00354004
-0.00341797
-0.00354004
-0.00366211
-0.00360107
-0.00366211
-0.00372314
-0.00360107
-0.003479
-0.003479
-0.00354004
-0.00366211
-0.00354004
-0.00360107
-0.00372314
-0.00366211
-0.00372314
-0.00372314
-0.00372314
-0.00378418
-0.00366211
-0.00360107
-0.003479
-0.003479
-0.00354004
-0.003479
-0.003479
-0.00360107
-0.00366211
-0.00360107
-0.003479
-0.00354004
-0.00354004
-0.00341797
-0.003479
-0.00360107
-0.00378418
-0.00366211
-0.00366211
-0.00372314
-0.00366211
-0.00360107
-0.00360107
-0.00366211
-0.00372314
-0.00366211
-0.003479
-0.003479
-0.003479
-0.00354004
-0.003479
-0.003479
-0.00341797
-0.00366211
-0.00354004
-0.00360107
-0.00372314
-0.00360107
-0.00360107
-0.00354004
-0.00341797
-0.00341797
-0.00335693
-0.00335693
-0.00360107
-0.00366211
-0.00366211
-0.00360107
-0.00360107
-0.003479
-0.00341797
-0.00335693
-0.003479
-0.00341797
-0.00354004
-0.003479
-0.00341797
-0.00335693
-0.00354004
-0.00341797
-0.00335693
-0.00335693
-0.00354004
-0.00354004
-0.0032959000000000005
-0.003479
-0.003479
-0.00341797
-0.00341797
-0.00360107
-0.00360107
-0.00354004
-0.00335693
-0.003479
-0.003479
-0.003479
-0.00354004
-0.00366211
-0.003479
-0.00341797
-0.00335693
-0.00341797
-0.003479
-0.00360107
-0.00360107
-0.00354004
-0.00354004
-0.00372314
-0.00341797
-0.003479
-0.003479
-0.00360107
-0.00341797
-0.00335693
-0.003479
-0.003479
-0.003479
-0.00360107
-0.00360107
-0.00360107
-0.00354004
-0.00354004
-0.00354004
-0.00360107
-0.00354004
-0.00360107
-0.003479
-0.00366211
-0.003479
-0.00360107
-0.00341797
-0.00366211
-0.00360107
-0.00354004
-0.003479
-0.00354004
-0.00360107
-0.00366211
-0.00354004
-0.00366211
-0.00360107
-0.00360107
-0.00360107
-0.00360107
-0.00372314
-0.00366211
-0.00354004
-0.00354004
-0.00378418
-0.00354004
-0.00354004
-0.003479
-0.003479
-0.00360107
-0.00354004
-0.00360107
-0.00360107
-0.00354004
-0.00354004
-0.003479
-0.00354004
-0.00372314
-0.00366211
-0.003479
-0.00366211
-0.003479
-0.00341797
-0.003479
-0.003479
-0.00366211
-0.00360107
-0.00366211
-0.003479
-0.003479
-0.00341797
-0.003479
-0.00354004
-0.00372314
-0.00390625
-0.00372314
-0.00372314
-0.00366211
-0.00360107
-0.003479
-0.0032959000000000005
-0.003479
-0.00360107
-0.00366211
-0.00354004
-0.00366211
-0.00378418
-0.00366211
-0.00366211
-0.00360107
-0.003479
-0.00354004
-0.00341797
-0.0032959000000000005
-0.00354004
-0.00360107
-0.00360107
-0.00335693
-0.00335693
-0.00335693
-0.0032959000000000005
-0.003479
-0.003479
-0.00360107
-0.00360107
-0.00360107
-0.00354004
-0.00354004
-0.00360107
-0.00354004
-0.00360107
-0.00366211
-0.00360107
-0.00354004
-0.00354004
-0.00366211
-0.00360107
-0.00354004
-0.00360107
-0.00360107
-0.00354004
-0.003479
-0.00335693
-0.003479
-0.00354004
-0.00354004
-0.003479
-0.00360107
-0.00360107
-0.003479
-0.00354004
-0.00366211
-0.00372314
-0.00360107
-0.00354004
-0.00335693
-0.00354004
-0.00341797
-0.003479
-0.003479
-0.00360107
-0.00341797
-0.00335693
-0.00323486
-0.003479
-0.00335693
-0.00354004
-0.00335693
-0.00341797
-0.00341797
-0.003479
-0.003479
-0.00335693
-0.00335693
-0.0032959000000000005
-0.0032959000000000005
-0.00341797
-0.00335693
-0.00341797
-0.00335693
-0.003479
-0.003479
-0.003479
-0.003479
-0.003479
-0.00360107
-0.00354004
-0.00360107
-0.00354004
-0.00354004
-0.00366211
-0.00360107
-0.003479
-0.003479
-0.00354004
-0.003479
-0.0032959000000000005
-0.00341797
-0.00366211
-0.00360107
-0.003479
-0.00372314
-0.00360107
-0.00360107
-0.0032959000000000005
-0.00335693
-0.003479
-0.003479
-0.00341797
-0.00354004
-0.00354004
-0.003479
-0.00335693
-0.00335693
-0.00341797
-0.00354004
-0.003479
-0.00354004
-0.00360107
-0.00354004
-0.00354004
-0.00354004
-0.00360107
-0.00354004
-0.00341797
-0.00341797
-0.003479
-0.00341797
-0.00341797
-0.003479
-0.00341797
-0.00354004
-0.00341797
-0.00341797
-0.00341797
-0.003479
-0.003479
-0.003479
-0.003479
-0.00335693
-0.003479
-0.00341797
-0.003479
-0.00354004
-0.00372314
-0.00354004
-0.00360107
-0.003479
-0.00341797
-0.003479
-0.00341797
-0.003479
-0.00360107
-0.00366211
-0.00384521
-0.00354004
-0.00360107
-0.003479
-0.003479
-0.00341797
-0.003479
-0.003479
-0.00341797
-0.00354004
-0.003479
-0.00335693
-0.003479
-0.00335693
-0.00335693
-0.00341797
-0.00335693
-0.0032959000000000005
-0.00335693
-0.00335693
-0.00323486
-0.00311279
-0.00311279
-0.00311279
-0.00311279
-0.00317383
-0.00323486
-0.0032959000000000005
-0.0032959000000000005
-0.0032959000000000005
-0.00317383
-0.00323486
-0.00311279
-0.00292969
-0.00299072
-0.00311279
-0.00311279
-0.00305176
-0.00317383
-0.00305176
-0.00317383
-0.00311279
-0.00311279
-0.00317383
-0.00317383
-0.00317383
-0.00317383
-0.00317383
-0.00323486
-0.00335693
-0.00323486
-0.0032959000000000005
-0.00317383
-0.00299072
-0.00311279
-0.00311279
-0.00323486
-0.00311279
-0.00317383
-0.00292969
-0.00317383
-0.0032959000000000005
-0.00317383
-0.00317383
-0.00335693
-0.0032959000000000005
-0.00311279
-0.00305176
-0.00311279
-0.00305176
-0.00305176
-0.00311279
-0.00311279
-0.00317383
-0.0032959000000000005
-0.00317383
-0.00323486
-0.00323486
-0.0032959000000000005
-0.00323486
-0.00323486
-0.0032959000000000005
-0.00317383
-0.00323486
-0.00305176
-0.00311279
-0.00311279
-0.00305176
-0.00305176
-0.00323486
-0.00335693
-0.0032959000000000005
-0.00317383
-0.00323486
-0.0032959000000000005
-0.00335693
-0.0032959000000000005
-0.00341797
-0.00341797
-0.0032959000000000005
-0.00317383
-0.00323486
-0.00323486
-0.00317383
-0.00305176
-0.00317383
-0.00317383
-0.00311279
-0.00323486
-0.0032959000000000005
-0.00311279
-0.00323486
-0.00317383
-0.00305176
-0.00317383
-0.00317383
-0.00311279
-0.0032959000000000005
-0.00335693
-0.00341797
-0.00341797
-0.00341797
-0.00323486
-0.00323486
-0.00317383
-0.00317383
-0.00311279
-0.00335693
-0.00317383
-0.00311279
-0.00311279
-0.00311279
-0.00311279
-0.00317383
-0.00317383
-0.00317383
-0.00335693
-0.00323486
-0.00292969
-0.00311279
-0.00317383
-0.00311279
-0.00305176
-0.00311279
-0.00317383
-0.00323486
-0.0032959000000000005
-0.00317383
-0.00335693
-0.00323486
-0.00323486
-0.0032959000000000005
-0.00317383
-0.00311279
-0.00311279
-0.00311279
-0.00305176
-0.00305176
-0.0032959000000000005
-0.0032959000000000005
-0.00341797
-0.00335693
-0.003479
-0.0032959000000000005
-0.00323486
-0.00323486
-0.00323486
-0.00311279
-0.00311279
-0.00323486
-0.0032959000000000005
-0.00323486
-0.0032959000000000005
-0.00341797
-0.0032959000000000005
-0.00311279
-0.0032959000000000005
-0.00341797
-0.0032959000000000005
-0.00323486
-0.00341797
-0.0032959000000000005
-0.00323486
-0.00311279
-0.00317383
-0.00323486
-0.00323486
-0.00323486
-0.00323486
-0.00323486
-0.00323486
-0.00317383
-0.00311279
-0.00323486
-0.0032959000000000005
-0.0032959000000000005
-0.00305176
-0.00323486
-0.00335693
-0.00335693
-0.00317383
-0.00317383
-0.00323486
-0.00317383
-0.00305176
-0.00323486
-0.00323486
-0.0032959000000000005
-0.00323486
-0.00323486
-0.00323486
-0.00323486
-0.00286865
-0.00305176
-0.00311279
-0.00317383
-0.00305176
-0.00317383
-0.00323486
-0.0032959000000000005
-0.00323486
-0.00305176
-0.00311279
-0.00317383
-0.00317383
-0.00311279
-0.00317383
-0.00317383
-0.00317383
-0.00311279
-0.00305176
-0.00323486
-0.00323486
-0.00317383
-0.0032959000000000005
-0.00323486
-0.00311279
-0.00311279
-0.00317383
-0.00323486
-0.00323486
-0.00335693
-0.00323486
-0.00323486
-0.00323486
-0.00311279
-0.00305176
-0.0032959000000000005
-0.00323486
-0.00317383
-0.00305176
-0.00323486
-0.00323486
-0.0032959000000000005
-0.00317383
-0.00317383
-0.00311279
-0.00323486
-0.00335693
-0.00317383
-0.00335693
-0.00323486
-0.0032959000000000005
-0.00323486
-0.00341797
-0.00341797
-0.00323486
-0.0032959000000000005
-0.00317383
-0.0032959000000000005
-0.00323486
-0.0032959000000000005
-0.00323486
-0.0032959000000000005
-0.00317383
-0.0032959000000000005
-0.00323486
-0.00317383
-0.00311279
-0.00311279
-0.00317383
-0.00323486
-0.0032959000000000005
-0.00335693
-0.00317383
-0.0032959000000000005
-0.0032959000000000005
-0.00317383
-0.00323486
-0.00317383
-0.0032959000000000005
-0.00323486
-0.00323486
-0.0032959000000000005
-0.0032959000000000005
-0.0032959000000000005
-0.00323486
-0.0032959000000000005
-0.00335693
-0.00341797
-0.0032959000000000005
-0.003479
-0.00354004
-0.00341797
-0.003479
-0.00323486
-0.00335693
-0.00335693
-0.00323486
-0.00323486
-0.0032959000000000005
-0.00317383
-0.00323486
-0.00317383
-0.00317383
-0.00317383
-0.00323486
-0.00317383
-0.00323486
-0.0032959000000000005
-0.0032959000000000005
-0.0032959000000000005
-0.0032959000000000005
-0.00360107
-0.00323486
-0.00317383
-0.0032959000000000005
-0.00335693
-0.00335693
-0.00323486
-0.00335693
-0.00341797
-0.00323486
-0.0032959000000000005
-0.0032959000000000005
-0.00323486
-0.00323486
-0.00323486
-0.00305176
-0.00323486
-0.00317383
-0.00323486
-0.00323486
-0.00335693
-0.00323486
-0.00317383
-0.00317383
-0.00292969
-0.00323486
-0.00311279
-0.00317383
-0.00323486
-0.0032959000000000005
-0.00341797
-0.0032959000000000005
-0.0032959000000000005
-0.00341797
-0.00335693
-0.00323486
-0.00311279
-0.0032959000000000005
-0.00317383
-0.0032959000000000005
-0.00311279
-0.00323486
-0.00317383
-0.00323486
-0.00305176
-0.00323486
-0.00323486
-0.00317383
-0.00305176
-0.00305176
-0.0032959000000000005
-0.00317383
-0.00317383
-0.00317383
-0.00323486
-0.0032959000000000005
-0.00323486
-0.0032959000000000005
-0.00323486
-0.00317383
-0.00305176
-0.00311279
-0.00311279
-0.00317383
-0.00317383
-0.00317383
-0.00311279
-0.00317383
-0.00323486
-0.00317383
-0.00317383
-0.00335693
-0.00323486
-0.00305176
-0.00323486
-0.00341797
-0.00323486
-0.0032959000000000005
-0.00335693
-0.00335693
-0.00335693
-0.00323486
-0.00323486
-0.00323486
-0.00323486
-0.00305176
-0.00323486
-0.0032959000000000005
-0.00354004
-0.00335693
-0.00335693
-0.0032959000000000005
-0.00317383
-0.00317383
-0.00317383
-0.0032959000000000005
-0.00323486
-0.00317383
-0.0032959000000000005
-0.00335693
-0.00323486
-0.00323486
-0.0032959000000000005
-0.0032959000000000005
-0.00335693
-0.00323486
-0.00317383
-0.00317383
-0.00323486
-0.00323486
-0.00323486
-0.00311279
-0.00323486
-0.00323486
-0.00311279
-0.00317383
-0.00341797
-0.0032959000000000005
-0.00317383
-0.0032959000000000005
-0.00317383
-0.0032959000000000005
-0.00311279
-0.00323486
-0.0032959000000000005
-0.00341797
-0.003479
-0.00360107
-0.00354004
-0.00354004
-0.003479
-0.00360107
-0.00360107
-0.00372314
-0.00378418
-0.003479
-0.003479
-0.00341797
-0.003479
-0.00366211
-0.003479
-0.00378418
-0.00360107
-0.00341797
-0.0032959000000000005
-0.003479
-0.003479
-0.00335693
-0.00366211
-0.00372314
-0.00366211
-0.00360107
-0.003479
-0.00354004
-0.00354004
-0.00366211
-0.00366211
-0.00360107
-0.003479
-0.00335693
-0.0032959000000000005
-0.00305176
-0.00323486
-0.0032959000000000005
-0.00341797
-0.003479
-0.00335693
-0.00335693
-0.00323486
-0.00323486
-0.00317383
-0.00317383
-0.00317383
-0.0032959000000000005
-0.003479
-0.00341797
-0.00354004
-0.00341797
-0.00335693
-0.003479
-0.003479
-0.00335693
-0.00317383
-0.00323486
-0.00311279
-0.00317383
-0.00335693
-0.00341797
-0.003479
-0.0032959000000000005
-0.0032959000000000005
-0.00317383
-0.00311279
-0.00323486
-0.00323486
-0.003479
-0.00360107
-0.00360107
-0.00341797
-0.00323486
-0.00317383
-0.00323486
-0.00317383
-0.00311279
-0.00317383
-0.00305176
-0.00311279
-0.00323486
-0.00317383
-0.00341797
-0.00323486
-0.00311279
-0.00317383
-0.00317383
-0.00323486
-0.00311279
-0.00311279
-0.0032959000000000005
-0.00323486
-0.00311279
-0.00335693
-0.00335693
-0.00323486
-0.0032959000000000005
-0.0032959000000000005
-0.00335693
-0.003479
-0.0032959000000000005
-0.0032959000000000005
-0.00341797
-0.0032959000000000005
-0.003479
-0.00366211
-0.00378418
-0.00360107
-0.00354004
-0.00341797
-0.0032959000000000005
-0.00323486
-0.0032959000000000005
-0.00341797
-0.00360107
-0.00354004
-0.00341797
-0.003479
-0.0032959000000000005
-0.00317383
-0.00311279
-0.00311279
-0.0032959000000000005
-0.0032959000000000005
-0.0032959000000000005
-0.003479
-0.00354004
-0.00378418
-0.00372314
-0.00354004
-0.003479
-0.00335693
-0.0032959000000000005
-0.0032959000000000005
-0.003479
-0.00360107
-0.00341797
-0.00317383
-0.00311279
-0.00311279
-0.00311279
-0.00323486
-0.00323486
-0.00341797
-0.00366211
-0.00354004
-0.00341797
-0.003479
-0.00341797
-0.00335693
-0.0032959000000000005
-0.003479
-0.003479
-0.00360107
-0.00341797
-0.003479
-0.00323486
-0.00335693
-0.00335693
-0.00323486
-0.00360107
-0.00354004
-0.00323486
-0.00311279
-0.00317383
-0.00317383
-0.00311279
-0.00323486
-0.00335693
-0.00335693
-0.00323486
-0.00317383
-0.0032959000000000005
-0.00317383
-0.00323486
-0.00311279
-0.00323486
-0.00317383
-0.00323486
-0.00323486
-0.00311279
-0.00323486
-0.0032959000000000005
-0.00311279
-0.00335693
-0.00323486
-0.00335693
-0.00335693
-0.00335693
-0.00335693
-0.00323486
-0.00317383
-0.00317383
-0.00323486
-0.0032959000000000005
-0.0032959000000000005
-0.00317383
-0.00341797
-0.00323486
-0.00317383
-0.00317383
-0.00323486
-0.0032959000000000005
-0.00317383
-0.00317383
-0.00341797
-0.00335693
-0.00335693
-0.00341797
-0.00317383
-0.00317383
-0.00311279
-0.00323486
-0.00317383
-0.00335693
-0.00317383
-0.00311279
-0.00317383
-0.00323486
-0.00317383
-0.00317383
-0.0032959000000000005
-0.00317383
-0.0032959000000000005
-0.0032959000000000005
-0.00311279
-0.00317383
-0.00317383
-0.00341797
-0.00335693
-0.00305176
-0.00317383
-0.00317383
-0.00311279
-0.00317383
-0.00317383
-0.0032959000000000005
-0.00317383
-0.00317383
-0.00317383
-0.0032959000000000005
-0.00323486
-0.00323486
-0.0032959000000000005
-0.00311279
-0.00317383
-0.00317383
-0.0032959000000000005
-0.00341797
-0.0032959000000000005
-0.00335693
-0.0032959000000000005
-0.003479
-0.00335693
-0.0032959000000000005
-0.00323486
-0.00323486
-0.0032959000000000005
-0.00317383
-0.00335693
-0.0032959000000000005
-0.00341797
-0.00323486
-0.00317383
-0.00323486
-0.00335693
-0.00323486
-0.00317383
-0.0032959000000000005
-0.0032959000000000005
-0.00341797
-0.00335693
-0.00335693
-0.003479
-0.00323486
-0.0032959000000000005
-0.00317383
-0.003479
-0.003479
-0.00335693
-0.00317383
-0.00317383
-0.00323486
-0.00311279
-0.00317383
-0.00341797
-0.0032959000000000005
-0.00323486
-0.00317383
-0.00335693
-0.00335693
-0.00317383
-0.00335693
-0.0032959000000000005
-0.00341797
-0.0032959000000000005
-0.00317383
-0.00311279
-0.00323486
-0.0032959000000000005
-0.0032959000000000005
-0.00323486
-0.0032959000000000005
-0.00335693
-0.00317383
-0.00323486
-0.00317383
-0.00317383
-0.0032959000000000005
-0.00335693
-0.003479
-0.00354004
-0.00354004
-0.00335693
-0.0032959000000000005
-0.00335693
-0.0032959000000000005
-0.00317383
-0.0032959000000000005
-0.00335693
-0.0032959000000000005
-0.00323486
-0.00335693
-0.0032959000000000005
-0.0032959000000000005
-0.00317383
-0.00323486
-0.00323486
-0.00317383
-0.00323486
-0.00335693
-0.0032959000000000005
-0.00335693
-0.00323486
-0.00311279
-0.003479
-0.00335693
-0.0032959000000000005
-0.0032959000000000005
-0.0032959000000000005
-0.00335693
-0.00317383
-0.0032959000000000005
-0.00335693
-0.00335693
-0.00323486
-0.00335693
-0.0032959000000000005
-0.00335693
-0.00341797
-0.00341797
-0.0032959000000000005
-0.00341797
-0.0032959000000000005
-0.00323486
-0.00317383
-0.0032959000000000005
-0.00341797
-0.00335693
-0.0032959000000000005
-0.00335693
-0.00335693
-0.0032959000000000005
-0.00323486
-0.0032959000000000005
-0.0032959000000000005
-0.0032959000000000005
-0.00317383
-0.00323486
-0.0032959000000000005
-0.0032959000000000005
-0.00323486
-0.00335693
-0.00323486
-0.00323486
-0.00323486
-0.00323486
-0.0032959000000000005
-0.00323486
-0.00335693
-0.003479
-0.00354004
-0.00317383
-0.00317383
-0.00323486
-0.00323486
-0.00317383
-0.00317383
-0.00323486
-0.0032959000000000005
-0.0032959000000000005
-0.0032959000000000005
-0.00341797
-0.00335693
-0.00354004
-0.00335693
-0.00323486
-0.00335693
-0.00335693
-0.00323486
-0.0032959000000000005
-0.0032959000000000005
-0.00335693
-0.003479
-0.0032959000000000005
-0.00323486
-0.00341797
-0.00341797
-0.00335693
-0.0032959000000000005
-0.00317383
-0.00317383
-0.00311279
-0.00323486
-0.003479
-0.00341797
-0.00341797
-0.00335693
-0.00335693
-0.0032959000000000005
-0.00323486
-0.00317383
-0.00317383
-0.00317383
-0.00323486
-0.00305176
-0.00305176
-0.00317383
-0.00323486
-0.0032959000000000005
-0.00323486
-0.00317383
-0.00323486
-0.00335693
-0.0032959000000000005
-0.003479
-0.003479
-0.00341797
-0.00335693
-0.003479
-0.0032959000000000005
-0.003479
-0.00341797
-0.00354004
-0.003479
-0.00335693
-0.00305176
-0.00305176
-0.00292969
-0.00292969
-0.00305176
-0.00305176
-0.00317383
-0.00317383
-0.00323486
-0.00292969
-0.00311279
-0.00299072
-0.00286865
-0.00292969
-0.00305176
-0.00292969
-0.00292969
-0.00292969
-0.00305176
-0.00311279
-0.00317383
-0.00317383
-0.00335693
-0.0032959000000000005
-0.00311279
-0.00292969
-0.00305176
-0.00317383
-0.00335693
-0.00317383
-0.0032959000000000005
-0.00354004
-0.00366211
-0.003479
-0.00341797
-0.00335693
-0.00341797
-0.00354004
-0.00360107
-0.00354004
-0.00372314
-0.003479
-0.0032959000000000005
-0.003479
-0.00366211
-0.003479
-0.003479
-0.00335693
-0.00335693
-0.00323486
-0.0032959000000000005
-0.00341797
-0.00354004
-0.00341797
-0.00335693
-0.00341797
-0.00341797
-0.003479
-0.003479
-0.00366211
-0.00366211
-0.00384521
-0.00378418
-0.00366211
-0.00378418
-0.00372314
-0.00372314
-0.00366211
-0.00366211
-0.00366211
-0.00360107
-0.003479
-0.003479
-0.00360107
-0.003479
-0.00354004
-0.00341797
-0.00341797
-0.0032959000000000005
-0.0032959000000000005
-0.0032959000000000005
-0.00341797
-0.003479
-0.003479
-0.00341797
-0.00360107
-0.00360107
-0.00341797
-0.00335693
-0.00317383
-0.00311279
-0.00305176
-0.00292969
-0.00317383
-0.00323486
-0.00323486
-0.00311279
-0.00311279
-0.00323486
-0.00311279
-0.00292969
-0.00311279
-0.00317383
-0.00305176
-0.00317383
-0.00323486
-0.00305176
-0.00292969
-0.00286865
-0.00280762
-0.00292969
-0.00305176
-0.00305176
-0.00311279
-0.00311279
-0.00323486
-0.00335693
-0.00323486
-0.00341797
-0.0032959000000000005
-0.0032959000000000005
-0.00323486
-0.00335693
-0.00341797
-0.0032959000000000005
-0.00317383
-0.00323486
-0.0032959000000000005
-0.00335693
-0.00341797
-0.00335693
-0.00341797
-0.00360107
-0.00354004
-0.00354004
-0.00372314
-0.00360107
-0.003479
-0.00354004
-0.00360107
-0.00360107
-0.00360107
-0.00360107
-0.00360107
-0.00360107
-0.00354004
-0.003479
-0.00341797
-0.00372314
-0.003479
-0.00360107
-0.00360107
-0.00372314
-0.00384521
-0.00366211
-0.00360107
-0.00360107
-0.00360107
-0.00354004
-0.003479
-0.00360107
-0.00366211
-0.00354004
-0.00366211
-0.00372314
-0.00366211
-0.00360107
-0.00354004
-0.00360107
-0.00360107
-0.00354004
-0.003479
-0.003479
-0.00366211
-0.00354004
-0.00341797
-0.00360107
-0.00360107
-0.00354004
-0.00354004
-0.00335693
-0.003479
-0.00360107
-0.003479
-0.00341797
-0.003479
-0.00354004
-0.00335693
-0.003479
-0.00360107
-0.00360107
-0.003479
-0.00354004
-0.003479
-0.003479
-0.00341797
-0.00341797
-0.00335693
-0.00354004
-0.00354004
-0.00354004
-0.00372314
-0.00372314
-0.00372314
-0.00360107
-0.00360107
-0.003479
-0.003479
-0.00341797
-0.003479
-0.00335693
-0.003479
-0.00354004
-0.00360107
-0.00360107
-0.00372314
-0.00360107
-0.003479
-0.00354004
-0.00354004
-0.00354004
-0.003479
-0.00354004
-0.00366211
-0.00360107
-0.003479
-0.003479
-0.00335693
-0.00341797
-0.00354004
-0.003479
-0.00354004
-0.00360107
-0.00354004
-0.00360107
-0.00366211
-0.00372314
-0.00354004
-0.00354004
-0.003479
-0.00354004
-0.00341797
-0.00354004
-0.00366211
-0.00372314
-0.00366211
-0.00366211
-0.00360107
-0.00366211
-0.00354004
-0.003479
-0.00360107
-0.00354004
-0.00366211
-0.003479
-0.003479
-0.003479
-0.00335693
-0.00323486
-0.00323486
-0.00323486
-0.0032959000000000005
-0.00341797
-0.00335693
-0.003479
-0.003479
-0.00341797
-0.00335693
-0.00341797
-0.003479
-0.00323486
-0.00323486
-0.00335693
-0.00335693
-0.00341797
-0.00341797
-0.00372314
-0.00372314
-0.00378418
-0.00360107
-0.00366211
-0.00360107
-0.00354004
-0.003479
-0.003479
-0.00366211
-0.00360107
-0.003479
-0.00354004
-0.003479
-0.00360107
-0.00354004
-0.003479
-0.00341797
-0.003479
-0.00335693
-0.00360107
-0.00354004
-0.00366211
-0.00372314
-0.00366211
-0.00354004
-0.00360107
-0.00354004
-0.00360107
-0.00372314
-0.00384521
-0.00384521
-0.00372314
-0.003479
-0.00366211
-0.00360107
-0.00360107
-0.00354004
-0.00366211
-0.00366211
-0.00354004
-0.00366211
-0.00372314
-0.00366211
-0.003479
-0.00354004
-0.003479
-0.00354004
-0.00360107
-0.00360107
-0.00372314
-0.00366211
-0.00372314
-0.00360107
-0.003479
-0.003479
-0.00354004
-0.00335693
-0.00323486
-0.0032959000000000005
-0.00335693
-0.0032959000000000005
-0.00341797
-0.003479
-0.003479
-0.00366211
-0.00341797
-0.003479
-0.00335693
-0.0032959000000000005
-0.00335693
-0.00335693
-0.00354004
-0.00354004
-0.00354004
-0.00354004
-0.003479
-0.003479
-0.00341797
-0.00341797
-0.003479
-0.00366211
-0.00372314
-0.00354004
-0.00354004
-0.00360107
-0.00335693
-0.003479
-0.00360107
-0.003479
-0.00341797
-0.00335693
-0.00335693
-0.00341797
-0.00341797
-0.003479
-0.00354004
-0.00354004
-0.003479
-0.003479
-0.0032959000000000005
-0.00354004
-0.00335693
-0.003479
-0.00372314
-0.00360107
-0.00366211
-0.003479
-0.003479
-0.00360107
-0.003479
-0.00354004
-0.003479
-0.00366211
-0.00360107
-0.003479
-0.00366211
-0.00360107
-0.003479
-0.003479
-0.003479
-0.00335693
-0.00354004
-0.00354004
-0.00354004
-0.00354004
-0.00354004
-0.00354004
-0.003479
-0.003479
-0.00341797
-0.003479
-0.00360107
-0.00354004
-0.00378418
-0.00366211
-0.00360107
-0.003479
-0.00360107
-0.00354004
-0.00366211
-0.00354004
-0.003479
-0.00354004
-0.00341797
-0.00354004
-0.00372314
-0.00378418
-0.00360107
-0.00360107
-0.00354004
-0.00366211
-0.00360107
-0.00360107
-0.00360107
-0.00360107
-0.00366211
-0.00354004
-0.00366211
-0.00354004
-0.00378418
-0.00366211
-0.00366211
-0.00372314
-0.00384521
-0.00366211
-0.00354004
-0.00354004
-0.00360107
-0.00354004
-0.00354004
-0.00360107
-0.00372314
-0.00360107
-0.00354004
-0.003479
-0.00354004
-0.00354004
-0.00366211
-0.00360107
-0.00372314
-0.00396729
-0.00360107
-0.00366211
-0.00366211
-0.00360107
-0.003479
-0.00341797
-0.00341797
-0.00372314
-0.00372314
-0.00354004
-0.003479
-0.00354004
-0.00354004
-0.003479
-0.00335693
-0.00360107
-0.003479
-0.003479
-0.003479
-0.00366211
-0.00366211
-0.00360107
-0.00378418
-0.00384521
-0.00378418
-0.00360107
-0.00360107
-0.00366211
-0.00366211
-0.00378418
-0.00384521
-0.00384521
-0.00384521
-0.00384521
-0.00372314
-0.00378418
-0.00372314
-0.00366211
-0.00354004
-0.003479
-0.003479
-0.00360107
-0.00360107
-0.00372314
-0.00366211
-0.00378418
-0.00341797
-0.00360107
-0.00354004
-0.00360107
-0.00360107
-0.00366211
-0.00366211
-0.00384521
-0.00384521
-0.00366211
-0.00372314
-0.00366211
-0.00354004
-0.00341797
-0.00341797
-0.00354004
-0.00354004
-0.00372314
-0.00354004
-0.00360107
-0.00360107
-0.00354004
-0.00360107
-0.00341797
-0.00341797
-0.00335693
-0.0032959000000000005
-0.00366211
-0.00366211
-0.00360107
-0.00360107
-0.00354004
-0.00341797
-0.00335693
-0.00354004
-0.00341797
-0.00354004
-0.00341797
-0.00341797
-0.00341797
-0.00354004
-0.00366211
-0.003479
-0.00366211
-0.00366211
-0.00360107
-0.00354004
-0.00341797
-0.00354004
-0.00341797
-0.00360107
-0.00341797
-0.00354004
-0.00341797
-0.00341797
-0.00335693
-0.00341797
-0.00335693
-0.00341797
-0.00335693
-0.00341797
-0.00354004
-0.00354004
-0.00354004
-0.003479
-0.003479
-0.00341797
-0.003479
-0.00341797
-0.003479
-0.00360107
-0.00360107
-0.00341797
-0.00360107
-0.00360107
-0.003479
-0.00335693
-0.003479
-0.00341797
-0.00341797
-0.003479
-0.003479
-0.00360107
-0.00335693
-0.00341797
-0.00335693
-0.00354004
-0.00360107
-0.00372314
-0.00360107
-0.00366211
-0.003479
-0.00341797
-0.00354004
-0.00360107
-0.00360107
-0.00366211
-0.00360107
-0.00384521
-0.00372314
-0.00360107
-0.00354004
-0.00366211
-0.00366211
-0.00360107
-0.003479
-0.003479
-0.00360107
-0.00366211
-0.00372314
-0.00384521
-0.00390625
-0.00354004
-0.003479
-0.00360107
-0.00366211
-0.00354004
-0.00335693
-0.003479
-0.003479
-0.00335693
-0.003479
-0.00341797
-0.00341797
-0.003479
-0.003479
-0.003479
-0.00360107
-0.003479
-0.00354004
-0.00341797
-0.00341797
-0.00354004
-0.00354004
-0.003479
-0.00366211
-0.00366211
-0.00366211
-0.00341797
-0.00360107
-0.00372314
-0.00366211
-0.00366211
-0.00372314
-0.00366211
-0.00341797
-0.00335693
-0.003479
-0.00372314
-0.00366211
-0.00384521
-0.00378418
-0.00366211
-0.00354004
-0.00335693
-0.00341797
-0.00354004
-0.00360107
-0.00366211
-0.00384521
-0.00366211
-0.00360107
-0.00341797
-0.00335693
-0.00341797
-0.00366211
-0.00372314
-0.00366211
-0.00366211
-0.00354004
-0.00360107
-0.003479
-0.003479
-0.00360107
-0.00384521
-0.00378418
-0.00372314
-0.00372314
-0.00360107
-0.003479
-0.00335693
-0.00341797
-0.00360107
-0.00360107
-0.00360107
-0.00366211
-0.00378418
-0.00341797
-0.00354004
-0.00354004
-0.00360107
-0.00354004
-0.00335693
-0.00354004
-0.003479
-0.003479
-0.00360107
-0.00360107
-0.00354004
-0.00354004
-0.00341797
-0.00335693
-0.003479
-0.00372314
-0.003479
-0.003479
-0.00366211
-0.00390625
-0.00366211
-0.00360107
-0.00341797
-0.00354004
-0.00341797
-0.00360107
-0.00372314
-0.00366211
-0.00372314
-0.00360107
-0.003479
-0.00335693
-0.00354004
-0.00354004
-0.00366211
-0.00372314
-0.00360107
-0.00354004
-0.00341797
-0.0032959000000000005
-0.003479
-0.0032959000000000005
-0.00335693
-0.00354004
-0.00354004
-0.00366211
-0.003479
-0.003479
-0.003479
-0.003479
-0.00360107
-0.00360107
-0.00360107
-0.00341797
-0.003479
-0.00335693
-0.00341797
-0.003479
-0.00335693
-0.00341797
-0.00341797
-0.00335693
-0.00341797
-0.00335693
-0.00341797
-0.00366211
-0.003479
-0.00341797
-0.00360107
-0.00360107
-0.00366211
-0.00360107
-0.00354004
-0.00354004
-0.00341797
-0.00317383
-0.0032959000000000005
-0.0032959000000000005
-0.00360107
-0.0032959000000000005
-0.00341797
-0.003479
-0.00360107
-0.00360107
-0.00341797
-0.00335693
-0.003479
-0.00341797
-0.003479
-0.00354004
-0.00366211
-0.00360107
-0.00360107
-0.00354004
-0.00360107
-0.00341797
-0.003479
-0.003479
-0.00354004
-0.00354004
-0.00354004
-0.00341797
-0.00354004
-0.00360107
-0.00360107
-0.00354004
-0.00341797
-0.003479
-0.003479
-0.00335693
-0.00335693
-0.00341797
-0.003479
-0.00341797
-0.00354004
-0.00366211
-0.00354004
-0.00335693
-0.00354004
-0.00372314
-0.00354004
-0.00335693
-0.003479
-0.00372314
-0.003479
-0.003479
-0.003479
-0.00366211
-0.003479
-0.00366211
-0.003479
-0.00378418
-0.00354004
-0.00378418
-0.00360107
-0.00372314
-0.00372314
-0.00372314
-0.00366211
-0.00360107
-0.00372314
-0.00372314
-0.00372314
-0.00384521
-0.00366211
-0.00360107
-0.00341797
-0.00360107
-0.00354004
-0.00354004
-0.00335693
-0.00341797
-0.00354004
-0.003479
-0.00360107
-0.00360107
-0.00360107
-0.00341797
-0.00335693
-0.00335693
-0.00360107
-0.003479
-0.00354004
-0.003479
-0.00354004
-0.003479
-0.00341797
-0.003479
-0.00366211
-0.00372314
-0.00360107
-0.00354004
-0.003479
-0.00360107
-0.003479
-0.00360107
-0.00360107
-0.00378418
-0.00366211
-0.00360107
-0.00360107
-0.00366211
-0.00372314
-0.00372314
-0.00384521
-0.00384521
-0.00366211
-0.00341797
-0.00335693
-0.00354004
-0.00366211
-0.00360107
-0.00372314
-0.00360107
-0.00360107
-0.00360107
-0.003479
-0.00360107
-0.00378418
-0.00384521
-0.00366211
-0.00372314
-0.00384521
-0.00360107
-0.003479
-0.00354004
-0.003479
-0.00341797
-0.00378418
-0.00360107
-0.00372314
-0.00360107
-0.00366211
-0.00354004
-0.00354004
-0.00354004
-0.00354004
-0.003479
-0.003479
-0.00360107
-0.00366211
-0.00366211
-0.00384521
-0.00384521
-0.00366211
-0.00360107
-0.00360107
-0.00366211
-0.00360107
-0.00354004
-0.00366211
-0.00372314
-0.00372314
-0.00354004
-0.00360107
-0.00372314
-0.00372314
-0.00372314
-0.00366211
-0.00354004
-0.00366211
-0.00366211
-0.00366211
-0.00366211
-0.00384521
-0.00372314
-0.00366211
-0.00360107
-0.00360107
-0.00354004
-0.003479
-0.00360107
-0.00366211
-0.00360107
-0.00360107
-0.00360107
-0.00366211
-0.00354004
-0.003479
-0.003479
-0.00354004
-0.00366211
-0.00354004
-0.00360107
-0.00372314
-0.00372314
-0.00360107
-0.00354004
-0.00360107
-0.00360107
-0.003479
-0.00354004
-0.00366211
-0.00372314
-0.00354004
-0.00341797
-0.00360107
-0.00360107
-0.00360107
-0.003479
-0.00335693
-0.00341797
-0.00341797
-0.00335693
-0.00341797
-0.003479
-0.00372314
-0.00378418
-0.00360107
-0.00360107
-0.00366211
-0.003479
-0.00341797
-0.003479
-0.00354004
-0.00360107
-0.00354004
-0.00354004
-0.00354004
-0.00341797
-0.00341797
-0.00341797
-0.00354004
-0.00366211
-0.00372314
-0.00378418
-0.00372314
-0.00366211
-0.00366211
-0.003479
-0.00366211
-0.00366211
-0.003479
-0.00360107
-0.00354004
-0.00360107
-0.00354004
-0.00360107
-0.00341797
-0.00354004
-0.00354004
-0.00360107
-0.003479
-0.00366211
-0.00360107
-0.00366211
-0.00360107
-0.00372314
-0.00354004
-0.00372314
-0.00354004
-0.00372314
-0.00372314
-0.00360107
-0.003479
-0.00360107
-0.00372314
-0.00341797
-0.00366211
-0.00360107
-0.00372314
-0.00341797
-0.00341797
-0.00341797
-0.003479
-0.00341797
-0.0032959000000000005
-0.003479
-0.003479
-0.00360107
-0.00366211
-0.00360107
-0.00360107
-0.00354004
-0.00341797
-0.00335693
-0.003479
-0.0032959000000000005
-0.00341797
-0.00354004
-0.00354004
-0.00366211
-0.00366211
-0.00372314
-0.00372314
-0.00372314
-0.00360107
-0.00341797
-0.00354004
-0.00360107
-0.003479
-0.00335693
-0.00341797
-0.00341797
-0.0032959000000000005
-0.00341797
-0.00341797
-0.00354004
-0.00360107
-0.00366211
-0.00384521
-0.00378418
-0.00366211
-0.00354004
-0.00335693
-0.003479
-0.00354004
-0.00360107
-0.00354004
-0.00354004
-0.00354004
-0.003479
-0.00341797
-0.003479
-0.003479
-0.00360107
-0.00372314
-0.00341797
-0.00360107
-0.00335693
-0.0032959000000000005
-0.00341797
-0.00354004
-0.00354004
-0.00366211
-0.00384521
-0.00366211
-0.00360107
-0.00341797
-0.00341797
-0.00341797
-0.00335693
-0.003479
-0.00354004
-0.00341797
-0.003479
-0.0032959000000000005
-0.00335693
-0.003479
-0.00360107
-0.00360107
-0.00354004
-0.00354004
-0.00354004
-0.003479
-0.00341797
-0.00354004
-0.00354004
-0.00360107
-0.00366211
-0.00360107
-0.00341797
-0.003479
-0.00354004
-0.00341797
-0.00366211
-0.00366211
-0.00366211
-0.003479
-0.00341797
-0.00341797
-0.00335693
-0.00335693
-0.003479
-0.00354004
-0.00354004
-0.00341797
-0.00354004
-0.003479
-0.00354004
-0.00335693
-0.00354004
-0.003479
-0.00354004
-0.00354004
-0.003479
-0.00354004
-0.003479
-0.00354004
-0.00335693
-0.003479
-0.00341797
-0.00360107
-0.00360107
-0.00360107
-0.00366211
-0.00354004
-0.00341797
-0.00354004
-0.00360107
-0.00354004
-0.003479
-0.00354004
-0.00360107
-0.003479
-0.003479
-0.0032959000000000005
-0.0032959000000000005
-0.00341797
-0.00335693
-0.00341797
-0.00341797
-0.003479
-0.00341797
-0.00354004
-0.00360107
-0.003479
-0.003479
-0.00360107
-0.00366211
-0.00366211
-0.00378418
-0.00360107
-0.00366211
-0.00372314
-0.00354004
-0.00335693
-0.003479
-0.00366211
-0.00354004
-0.00354004
-0.003479
-0.003479
-0.003479
-0.00335693
-0.00366211
-0.00366211
-0.00372314
-0.003479
-0.003479
-0.00354004
-0.00341797
-0.00341797
-0.00335693
-0.00335693
-0.003479
-0.003479
-0.00354004
-0.00354004
-0.003479
-0.00354004
-0.00341797
-0.00341797
-0.00335693
-0.00341797
-0.00354004
-0.003479
-0.00360107
-0.00341797
-0.00341797
-0.00341797
-0.00360107
-0.00372314
-0.00372314
-0.00360107
-0.003479
-0.00360107
-0.00341797
-0.0032959000000000005
-0.00335693
-0.0032959000000000005
-0.00335693
-0.00341797
-0.00341797
-0.003479
-0.00335693
-0.00341797
-0.00341797
-0.003479
-0.003479
-0.003479
-0.00366211
-0.00354004
-0.00372314
-0.00366211
-0.003479
-0.00335693
-0.00323486
-0.0032959000000000005
-0.00299072
-0.00317383
-0.00335693
-0.00335693
-0.003479
-0.00341797
-0.00354004
-0.00323486
-0.00323486
-0.00341797
-0.00354004
-0.00354004
-0.00354004
-0.00335693
-0.003479
-0.003479
-0.00335693
-0.00335693
-0.00335693
-0.00335693
-0.00323486
-0.00323486
-0.00341797
-0.00335693
-0.00341797
-0.00335693
-0.0032959000000000005
-0.00354004
-0.003479
-0.00354004
-0.00335693
-0.00341797
-0.00335693
-0.00323486
-0.00354004
-0.00372314
-0.003479
-0.00341797
-0.00354004
-0.0032959000000000005
-0.00335693
-0.00323486
-0.00317383
-0.00341797
-0.003479
-0.00360107
-0.00360107
-0.00366211
-0.00366211
-0.003479
-0.00341797
-0.0032959000000000005
-0.00317383
-0.00292969
-0.00305176
-0.00317383
-0.0032959000000000005
-0.0032959000000000005
-0.00335693
-0.0032959000000000005
-0.00335693
-0.003479
-0.00354004
-0.00360107
-0.00354004
-0.00360107
-0.00360107
-0.00341797
-0.00335693
-0.00335693
-0.00323486
-0.00341797
-0.003479
-0.00360107
-0.00366211
-0.00372314
-0.00360107
-0.00372314
-0.00354004
-0.00335693
-0.003479
-0.00335693
-0.00335693
-0.00335693
-0.00354004
-0.00360107
-0.003479
-0.00354004
-0.00360107
-0.00341797
-0.00341797
-0.00335693
-0.00335693
-0.00354004
-0.003479
-0.003479
-0.003479
-0.00354004
-0.00360107
-0.00360107
-0.00366211
-0.00341797
-0.003479
-0.003479
-0.00341797
-0.003479
-0.00366211
-0.00354004
-0.00354004
-0.00354004
-0.00341797
-0.00341797
-0.00335693
-0.00360107
-0.00360107
-0.00354004
-0.00341797
-0.003479
-0.00372314
-0.00366211
-0.00366211
-0.00360107
-0.00360107
-0.00366211
-0.003479
-0.00354004
-0.00360107
-0.00360107
-0.00366211
-0.00366211
-0.00360107
-0.00372314
-0.00366211
-0.00366211
-0.00372314
-0.00366211
-0.00354004
-0.00341797
-0.00335693
-0.00354004
-0.003479
-0.00354004
-0.00354004
-0.00366211
-0.00366211
-0.00354004
-0.003479
-0.00354004
-0.00366211
-0.00360107
-0.003479
-0.00360107
-0.00372314
-0.00366211
-0.00366211
-0.00384521
-0.00366211
-0.00366211
-0.00360107
-0.00366211
-0.00360107
-0.003479
-0.00341797
-0.00354004
-0.00372314
-0.00366211
-0.00354004
-0.00366211
-0.003479
-0.00360107
-0.00366211
-0.00360107
-0.00360107
-0.00366211
-0.00360107
-0.00354004
-0.00360107
-0.00360107
-0.00372314
-0.00366211
-0.00372314
-0.00378418
-0.00354004
-0.00360107
-0.00354004
-0.00341797
-0.00341797
-0.00341797
-0.00354004
-0.00366211
-0.00372314
-0.00354004
-0.00341797
-0.00360107
-0.00360107
-0.00360107
-0.00366211
-0.00378418
-0.00390625
-0.00384521
-0.00354004
-0.00372314
-0.00372314
-0.00354004
-0.00360107
-0.00366211
-0.00372314
-0.00366211
-0.00354004
-0.00366211
-0.00366211
-0.00384521
-0.00366211
-0.00366211
-0.00366211
-0.00384521
-0.00378418
-0.00366211
-0.00378418
-0.00372314
-0.003479
-0.00360107
-0.00360107
-0.00384521
-0.00366211
-0.003479
-0.00366211
-0.00366211
-0.00360107
-0.00341797
-0.00341797
-0.00360107
-0.00354004
-0.00366211
-0.00366211
-0.00366211
-0.003479
-0.00354004
-0.00360107
-0.00384521
-0.00354004
-0.0032959000000000005
-0.0032959000000000005
-0.00311279
-0.00323486
-0.00317383
-0.0032959000000000005
-0.00341797
-0.00366211
-0.00360107
-0.00378418
-0.00360107
-0.00360107
-0.003479
-0.00335693
-0.0032959000000000005
-0.00335693
-0.00354004
-0.00360107
-0.00372314
-0.00390625
-0.00372314
-0.00366211
-0.00366211
-0.003479
-0.003479
-0.0032959000000000005
-0.00335693
-0.00354004
-0.00354004
-0.003479
-0.00360107
-0.00360107
-0.00354004
-0.003479
-0.0032959000000000005
-0.00341797
-0.00360107
-0.00354004
-0.00360107
-0.00360107
-0.00341797
-0.0032959000000000005
-0.00323486
-0.00323486
-0.003479
-0.003479
-0.00354004
-0.003479
-0.0032959000000000005
-0.00323486
-0.00311279
-0.00317383
-0.00317383
-0.00341797
-0.00323486
-0.00323486
-0.00323486
-0.0032959000000000005
-0.00311279
-0.00299072
-0.00305176
-0.00311279
-0.00311279
-0.00305176
-0.00311279
-0.0032959000000000005
-0.0032959000000000005
-0.0032959000000000005
-0.00323486
-0.00323486
-0.00305176
-0.00317383
-0.00311279
-0.00317383
-0.00305176
-0.00299072
-0.00311279
-0.00311279
-0.00305176
-0.00292969
-0.00311279
-0.00311279
-0.00311279
-0.00305176
-0.0032959000000000005
-0.00317383
-0.00335693
-0.00311279
-0.00323486
-0.00317383
-0.00323486
-0.00311279
-0.00317383
-0.00317383
-0.00323486
-0.00317383
-0.00317383
-0.00317383
-0.00317383
-0.00317383
-0.00317383
-0.00311279
-0.00323486
-0.00299072
-0.00292969
-0.00292969
-0.00317383
-0.00317383
-0.00341797
-0.00341797
-0.003479
-0.003479
-0.00360107
-0.00354004
-0.00360107
-0.00354004
-0.00354004
-0.00341797
-0.00360107
-0.00360107
-0.00354004
-0.00354004
-0.00354004
-0.00360107
-0.00360107
-0.00354004
-0.00372314
-0.00360107
-0.00378418
-0.00366211
-0.003479
-0.00360107
-0.00378418
-0.00354004
-0.003479
-0.00366211
-0.00354004
-0.00354004
-0.003479
-0.003479
-0.00341797
-0.00317383
-0.0032959000000000005
-0.00323486
-0.0032959000000000005
-0.00341797
-0.00335693
-0.00335693
-0.0032959000000000005
-0.0032959000000000005
-0.00341797
-0.00317383
-0.0032959000000000005
-0.00335693
-0.00335693
-0.003479
-0.003479
-0.00354004
-0.00341797
-0.00354004
-0.00360107
-0.00360107
-0.00360107
-0.00360107
-0.00360107
-0.00372314
-0.00354004
-0.00360107
-0.00354004
-0.00341797
-0.00341797
-0.00341797
-0.00323486
-0.0032959000000000005
-0.00317383
-0.00317383
-0.00323486
-0.003479
-0.00341797
-0.00341797
-0.0032959000000000005
-0.00317383
-0.00317383
-0.00323486
-0.00323486
-0.003479
-0.00354004
-0.00335693
-0.0032959000000000005
-0.00354004
-0.003479
-0.00335693
-0.00323486
-0.0032959000000000005
-0.00341797
-0.00341797
-0.0032959000000000005
-0.00335693
-0.0032959000000000005
-0.0032959000000000005
-0.0032959000000000005
-0.0032959000000000005
-0.00317383
-0.00317383
-0.00299072
-0.00311279
-0.00305176
-0.00317383
-0.00317383
-0.00305176
-0.00317383
-0.00311279
-0.00286865
-0.00274658
-0.00274658
-0.00292969
-0.00292969
-0.00305176
-0.00317383
-0.00323486
-0.0032959000000000005
-0.00311279
-0.00335693
-0.0032959000000000005
-0.00323486
-0.00317383
-0.00323486
-0.00317383
-0.00323486
-0.00323486
-0.00305176
-0.00317383
-0.00317383
-0.00323486
-0.00335693
-0.00341797
-0.00354004
-0.003479
-0.00354004
-0.00354004
-0.00354004
-0.0032959000000000005
-0.00317383
-0.00317383
-0.0032959000000000005
-0.00323486
-0.00317383
-0.00311279
-0.00317383
-0.00317383
-0.00323486
-0.0032959000000000005
-0.00311279
-0.00323486
-0.00317383
-0.00311279
-0.00317383
-0.00323486
-0.00317383
-0.00305176
-0.00323486
-0.003479
-0.00341797
-0.00317383
-0.00323486
-0.00311279
-0.00323486
-0.00323486
-0.00354004
-0.00366211
-0.00366211
-0.00354004
-0.00323486
-0.00335693
-0.00317383
-0.00323486
-0.0032959000000000005
-0.0032959000000000005
-0.00341797
-0.00335693
-0.00341797
-0.00335693
-0.0032959000000000005
-0.0032959000000000005
-0.00341797
-0.00354004
-0.00341797
-0.00341797
-0.00317383
-0.00335693
-0.00341797
-0.00341797
-0.00335693
-0.0032959000000000005
-0.0032959000000000005
-0.00311279
-0.00305176
-0.00311279
-0.00311279
-0.00311279
-0.00292969
-0.00311279
-0.00335693
-0.0032959000000000005
-0.00305176
-0.00305176
-0.00323486
-0.00317383
-0.00323486
-0.0032959000000000005
-0.00317383
-0.00317383
-0.00323486
-0.00317383
-0.00286865
-0.00286865
-0.00299072
-0.00299072
-0.00317383
-0.00317383
-0.00317383
-0.00292969
-0.00280762
-0.00292969
-0.00311279
-0.00311279
-0.00317383
-0.00317383
-0.00299072
-0.00292969
-0.00274658
-0.00292969
-0.00292969
-0.00317383
-0.00305176
-0.00317383
-0.00305176
-0.00323486
-0.00311279
-0.00311279
-0.00311279
-0.00305176
-0.00299072
-0.00311279
-0.00317383
-0.00311279
-0.00317383
-0.0032959000000000005
-0.00323486
-0.00317383
-0.00311279
-0.00299072
-0.00299072
-0.00280762
-0.00286865
-0.00286865
-0.00286865
-0.00286865
-0.00280762
-0.00280762
-0.00280762
-0.00286865
-0.00311279
-0.00317383
-0.00311279
-0.0032959000000000005
-0.00286865
-0.00311279
-0.00317383
-0.00317383
-0.00323486
-0.00323486
-0.00317383
-0.00323486
-0.0032959000000000005
-0.0032959000000000005
-0.00360107
-0.00372314
-0.00360107
-0.00354004
-0.00360107
-0.00360107
-0.00354004
-0.00360107
-0.00354004
-0.00360107
-0.00372314
-0.00354004
-0.003479
-0.003479
-0.003479
-0.00335693
-0.003479
-0.00360107
-0.00354004
-0.00360107
-0.00366211
-0.00360107
-0.00366211
-0.00354004
-0.00341797
-0.00354004
-0.00354004
-0.00360107
-0.00341797
-0.00341797
-0.00323486
-0.00311279
-0.00317383
-0.00323486
-0.0032959000000000005
-0.00335693
-0.0032959000000000005
-0.00317383
-0.0032959000000000005
-0.0032959000000000005
-0.00317383
-0.00311279
-0.00317383
-0.0032959000000000005
-0.00311279
-0.00305176
-0.00323486
-0.00323486
-0.00335693
-0.0032959000000000005
-0.00317383
-0.00323486
-0.00323486
-0.00317383
-0.00317383
-0.00323486
-0.0032959000000000005
-0.00311279
-0.00317383
-0.00317383
-0.00335693
-0.00335693
-0.00335693
-0.00360107
-0.00341797
-0.00335693
-0.00335693
-0.00341797
-0.00341797
-0.00354004
-0.003479
-0.00360107
-0.003479
-0.00341797
-0.00335693
-0.00341797
-0.0032959000000000005
-0.00335693
-0.00323486
-0.00335693
-0.00335693
-0.003479
-0.00335693
-0.0032959000000000005
-0.0032959000000000005
-0.0032959000000000005
-0.0032959000000000005
-0.00317383
-0.00317383
-0.00323486
-0.00317383
-0.00317383
-0.00317383
-0.00323486
-0.00317383
-0.00317383
-0.00341797
-0.003479
-0.00341797
-0.0032959000000000005
-0.0032959000000000005
-0.00341797
-0.003479
-0.0032959000000000005
-0.00311279
-0.00317383
-0.00317383
-0.00305176
-0.00292969
-0.00299072
-0.00311279
-0.00311279
-0.00317383
-0.00323486
-0.00317383
-0.00299072
-0.00305176
-0.00305176
-0.00311279
-0.00311279
-0.00311279
-0.00311279
-0.0032959000000000005
-0.0032959000000000005
-0.00341797
-0.00341797
-0.00360107
-0.00354004
-0.00335693
-0.00323486
-0.00335693
-0.00323486
-0.00323486
-0.00323486
-0.003479
-0.00360107
-0.00354004
-0.00341797
-0.0032959000000000005
-0.0032959000000000005
-0.00317383
-0.00317383
-0.00311279
-0.00323486
-0.00317383
-0.00317383
-0.00299072
-0.00317383
-0.00317383
-0.00311279
-0.00305176
-0.00299072
-0.00311279
-0.00317383
-0.0032959000000000005
-0.00354004
-0.003479
-0.00354004
-0.00323486
-0.00323486
-0.00305176
-0.00317383
-0.00311279
-0.00317383
-0.00323486
-0.0032959000000000005
-0.00323486
-0.0032959000000000005
-0.00335693
-0.0032959000000000005
-0.00323486
-0.00317383
-0.00335693
-0.00323486
-0.00341797
-0.00354004
-0.00354004
-0.003479
-0.00341797
-0.00341797
-0.0032959000000000005
-0.0032959000000000005
-0.00317383
-0.00311279
-0.00323486
-0.00323486
-0.00311279
-0.00292969
-0.00305176
-0.00317383
-0.00311279
-0.00311279
-0.0032959000000000005
-0.00335693
-0.00335693
-0.00341797
-0.00341797
-0.00341797
-0.0032959000000000005
-0.00323486
-0.0032959000000000005
-0.00323486
-0.00317383
-0.00317383
-0.00317383
-0.00335693
-0.00317383
-0.00311279
-0.00299072
-0.00317383
-0.00305176
-0.00292969
-0.00317383
-0.00323486
-0.00335693
-0.003479
-0.00341797
-0.00354004
-0.003479
-0.00341797
-0.0032959000000000005
-0.00335693
-0.00335693
-0.00317383
-0.00305176
-0.00311279
-0.00317383
-0.00335693
-0.00323486
-0.00341797
-0.003479
-0.00341797
-0.00335693
-0.00323486
-0.00335693
-0.00341797
-0.00354004
-0.0032959000000000005
-0.0032959000000000005
-0.00323486
-0.00317383
-0.00335693
-0.0032959000000000005
-0.00354004
-0.0032959000000000005
-0.00323486
-0.00311279
-0.00311279
-0.00311279
-0.00323486
-0.00335693
-0.00341797
-0.00341797
-0.00335693
-0.00335693
-0.00360107
-0.003479
-0.00341797
-0.00341797
-0.00335693
-0.0032959000000000005
-0.00335693
-0.00341797
-0.00335693
-0.0032959000000000005
-0.00354004
-0.00360107
-0.003479
-0.00335693
-0.00335693
-0.00311279
-0.00311279
-0.00323486
-0.0032959000000000005
-0.00354004
-0.003479
-0.00366211
-0.00354004
-0.00341797
-0.00335693
-0.00335693
-0.00354004
-0.00354004
-0.00354004
-0.00360107
-0.00354004
-0.00341797
-0.003479
-0.00354004
-0.00360107
-0.00360107
-0.00341797
-0.00341797
-0.00354004
-0.00335693
-0.0032959000000000005
-0.00323486
-0.00323486
-0.00323486
-0.00305176
-0.0032959000000000005
-0.00323486
-0.00335693
-0.0032959000000000005
-0.00323486
-0.003479
-0.00354004
-0.00341797
-0.003479
-0.00354004
-0.00354004
-0.00341797
-0.00323486
-0.0032959000000000005
-0.00323486
-0.00323486
-0.00341797
-0.003479
-0.00354004
-0.00341797
-0.0032959000000000005
-0.003479
-0.00354004
-0.00366211
-0.00372314
-0.00378418
-0.00354004
-0.00366211
-0.00354004
-0.00360107
-0.00360107
-0.00360107
-0.00372314
-0.00378418
-0.00384521
-0.00378418
-0.00384521
-0.00378418
-0.00384521
-0.00390625
-0.00384521
-0.00378418
-0.00360107
-0.00354004
-0.00341797
-0.00323486
-0.00323486
-0.00317383
-0.00335693
-0.00335693
-0.00323486
-0.00354004
-0.003479
-0.00366211
-0.00366211
-0.00366211
-0.00366211
-0.00354004
-0.00354004
-0.00366211
-0.00354004
-0.00323486
-0.0032959000000000005
-0.00317383
-0.00317383
-0.00335693
-0.00341797
-0.003479
-0.00366211
-0.00360107
-0.003479
-0.00341797
-0.003479
-0.00335693
-0.003479
-0.00372314
-0.00366211
-0.003479
-0.003479
-0.003479
-0.003479
-0.003479
-0.00354004
-0.00360107
-0.00372314
-0.00372314
-0.00384521
-0.00378418
-0.00372314
-0.00360107
-0.00354004
-0.00360107
-0.00372314
-0.00372314
-0.00354004
-0.003479
-0.00366211
-0.00366211
-0.00366211
-0.00360107
-0.00341797
-0.00341797
-0.003479
-0.003479
-0.00335693
-0.00354004
-0.00366211
-0.00366211
-0.00372314
-0.00378418
-0.00372314
-0.00366211
-0.00354004
-0.00354004
-0.00366211
-0.00354004
-0.00354004
-0.00360107
-0.00390625
-0.00378418
-0.00384521
-0.00378418
-0.00378418
-0.00360107
-0.00366211
-0.003479
-0.00354004
-0.00360107
-0.00354004
-0.003479
-0.00360107
-0.00341797
-0.00335693
-0.00341797
-0.00354004
-0.00354004
-0.003479
-0.00354004
-0.00341797
-0.003479
-0.00341797
-0.00341797
-0.00335693
-0.00335693
-0.003479
-0.00354004
-0.00354004
-0.00354004
-0.00341797
-0.003479
-0.00341797
-0.003479
-0.00354004
-0.003479
-0.003479
-0.00372314
-0.00372314
-0.00360107
-0.00354004
-0.00360107
-0.00360107
-0.00366211
-0.00354004
-0.003479
-0.00354004
-0.00354004
-0.0032959000000000005
-0.00354004
-0.003479
-0.003479
-0.003479
-0.00335693
-0.00360107
-0.003479
-0.00335693
-0.003479
-0.003479
-0.00354004
-0.003479
-0.00341797
-0.00341797
-0.00335693
-0.003479
-0.00354004
-0.00354004
-0.00335693
-0.0032959000000000005
-0.00335693
-0.00341797
-0.0032959000000000005
-0.00335693
-0.003479
-0.00335693
-0.003479
-0.00360107
-0.00366211
-0.00360107
-0.00354004
-0.00341797
-0.00341797
-0.00341797
-0.003479
-0.00335693
-0.00335693
-0.00341797
-0.0032959000000000005
-0.003479
-0.0032959000000000005
-0.0032959000000000005
-0.00335693
-0.00335693
-0.003479
-0.0032959000000000005
-0.003479
-0.003479
-0.00354004
-0.00341797
-0.003479
-0.00335693
-0.00335693
-0.00317383
-0.00335693
-0.00323486
-0.00341797
-0.00354004
-0.003479
-0.00366211
-0.00366211
-0.00341797
-0.00341797
-0.00341797
-0.00354004
-0.003479
-0.00341797
-0.00335693
-0.00366211
-0.003479
-0.00354004
-0.00360107
-0.00360107
-0.00335693
-0.003479
-0.00354004
-0.00360107
-0.00354004
-0.003479
-0.00341797
-0.00341797
-0.00354004
-0.00366211
-0.00354004
-0.00372314
-0.00372314
-0.00366211
-0.00354004
-0.00360107
-0.00366211
-0.00354004
-0.00354004
-0.00354004
-0.00354004
-0.00360107
-0.00354004
-0.00354004
-0.00360107
-0.003479
-0.003479
-0.003479
-0.003479
-0.00360107
-0.00354004
-0.00341797
-0.00360107
-0.00366211
-0.003479
-0.00341797
-0.00366211
-0.00354004
-0.00341797
-0.003479
-0.00354004
-0.00360107
-0.00354004
-0.00360107
-0.00372314
-0.00360107
-0.00360107
-0.003479
-0.003479
-0.003479
-0.00317383
-0.003479
-0.00360107
-0.00360107
-0.00366211
-0.00378418
-0.00366211
-0.00366211
-0.00384521
-0.00378418
-0.00378418
-0.00372314
-0.00354004
-0.00354004
-0.00341797
-0.003479
-0.003479
-0.00335693
-0.00341797
-0.00335693
-0.00354004
-0.00341797
-0.00341797
-0.00354004
-0.003479
-0.003479
-0.00341797
-0.00335693
-0.00354004
-0.00335693
-0.00354004
-0.00372314
-0.00372314
-0.00366211
-0.00360107
-0.00360107
-0.00360107
-0.00366211
-0.00354004
-0.00341797
-0.00341797
-0.00335693
-0.003479
-0.003479
-0.003479
-0.00366211
-0.00354004
-0.003479
-0.00354004
-0.00354004
-0.00335693
-0.0032959000000000005
-0.00341797
-0.003479
-0.00354004
-0.003479
-0.00366211
-0.00366211
-0.00360107
-0.00354004
-0.00372314
-0.003479
-0.003479
-0.00354004
-0.00335693
-0.00360107
-0.00360107
-0.00372314
-0.003479
-0.00360107
-0.00354004
-0.003479
-0.00335693
-0.003479
-0.00354004
-0.00366211
-0.00360107
-0.003479
-0.00360107
-0.00354004
-0.003479
-0.00360107
-0.00360107
-0.00378418
-0.00354004
-0.00354004
-0.00372314
-0.00354004
-0.00354004
-0.003479
-0.00366211
-0.00360107
-0.00360107
-0.00354004
-0.00354004
-0.00354004
-0.00335693
-0.003479
-0.003479
-0.00372314
-0.00372314
-0.00360107
-0.00354004
-0.00366211
-0.00360107
-0.00360107
-0.00360107
-0.00366211
-0.00366211
-0.00341797
-0.003479
-0.00354004
-0.00354004
-0.00341797
-0.00335693
-0.003479
-0.00360107
-0.00341797
-0.00354004
-0.00354004
-0.00366211
-0.003479
-0.00360107
-0.00360107
-0.00360107
-0.00366211
-0.00354004
-0.00360107
-0.003479
-0.00341797
-0.003479
-0.00366211
-0.00354004
-0.00360107
-0.00360107
-0.00335693
-0.00360107
-0.00360107
-0.00360107
-0.003479
-0.00354004
-0.00360107
-0.00360107
-0.00341797
-0.003479
-0.00354004
-0.00360107
-0.00354004
-0.00354004
-0.00360107
-0.00360107
-0.00366211
-0.00354004
-0.00360107
-0.00354004
-0.003479
-0.00354004
-0.003479
-0.00360107
-0.003479
-0.003479
-0.00354004
-0.00354004
-0.00360107
-0.003479
-0.00354004
-0.00366211
-0.00360107
-0.00341797
-0.00360107
-0.00378418
-0.00366211
-0.003479
-0.00366211
-0.00366211
-0.00366211
-0.00372314
-0.00372314
-0.003479
-0.003479
-0.003479
-0.00341797
-0.003479
-0.00360107
-0.00354004
-0.00360107
-0.00354004
-0.00360107
-0.003479
-0.00354004
-0.00366211
-0.00372314
-0.003479
-0.00354004
-0.00354004
-0.00354004
-0.00360107
-0.00360107
-0.00366211
-0.00372314
-0.00366211
-0.00354004
-0.00354004
-0.00366211
-0.00354004
-0.00360107
-0.00354004
-0.00354004
-0.00354004
-0.00354004
-0.003479
-0.00366211
-0.00360107
-0.00354004
-0.00366211
-0.00366211
-0.00360107
-0.00360107
-0.003479
-0.00341797
-0.00366211
-0.003479
-0.003479
-0.00354004
-0.00360107
-0.00354004
-0.00341797
-0.00341797
-0.00335693
-0.00354004
-0.00341797
-0.003479
-0.00341797
-0.00341797
-0.00335693
-0.00341797
-0.003479
-0.00360107
-0.00354004
-0.00354004
-0.00354004
-0.00354004
-0.003479
-0.00335693
-0.00360107
-0.00335693
-0.00335693
-0.0032959000000000005
-0.0032959000000000005
-0.003479
-0.00341797
-0.00360107
-0.00366211
-0.00366211
-0.00354004
-0.00341797
-0.003479
-0.00360107
-0.00341797
-0.00341797
-0.00354004
-0.00366211
-0.00360107
-0.00360107
-0.00354004
-0.00354004
-0.003479
-0.003479
-0.003479
-0.00354004
-0.00360107
-0.00341797
-0.00341797
-0.00360107
-0.00354004
-0.003479
-0.00354004
-0.00341797
-0.00354004
-0.00341797
-0.0032959000000000005
-0.00341797
-0.00354004
-0.003479
-0.00335693
-0.00341797
-0.003479
-0.00341797
-0.003479
-0.00341797
-0.00354004
-0.00354004
-0.00360107
-0.00354004
-0.00341797
-0.00360107
-0.003479
-0.0032959000000000005
-0.003479
-0.00354004
-0.00360107
-0.00366211
-0.00372314
-0.00360107
-0.00366211
-0.00372314
-0.00354004
-0.00360107
-0.003479
-0.00335693
-0.003479
-0.00335693
-0.00341797
-0.00335693
-0.00354004
-0.00354004
-0.00354004
-0.003479
-0.00335693
-0.003479
-0.00341797
-0.00323486
-0.00335693
-0.00341797
-0.00354004
-0.00360107
-0.003479
-0.003479
-0.00372314
-0.00360107
-0.00354004
-0.00354004
-0.00354004
-0.00354004
-0.003479
-0.00341797
-0.00341797
-0.00360107
-0.00341797
-0.00354004
-0.00360107
-0.00354004
-0.00354004
-0.00341797
-0.003479
-0.00360107
-0.00366211
-0.003479
-0.003479
-0.00354004
-0.00341797
-0.00335693
-0.0032959000000000005
-0.003479
-0.003479
-0.003479
-0.0032959000000000005
-0.00354004
-0.003479
-0.00335693
-0.00354004
-0.003479
-0.00341797
-0.00335693
-0.00341797
-0.00354004
-0.003479
-0.00354004
-0.003479
-0.00354004
-0.003479
-0.003479
-0.003479
-0.00354004
-0.00341797
-0.00354004
-0.003479
-0.003479
-0.00360107
-0.00360107
-0.003479
-0.00360107
-0.00366211
-0.00360107
-0.00354004
-0.00354004
-0.00360107
-0.00360107
-0.003479
-0.00335693
-0.00354004
-0.00354004
-0.003479
-0.003479
-0.00354004
-0.00354004
-0.00335693
-0.00341797
-0.00341797
-0.003479
-0.00341797
-0.003479
-0.00341797
-0.00341797
-0.00341797
-0.00335693
-0.00335693
-0.00360107
-0.00360107
-0.00354004
-0.00354004
-0.00341797
-0.003479
-0.0032959000000000005
-0.0032959000000000005
-0.00341797
-0.00354004
-0.003479
-0.00341797
-0.00354004
-0.00354004
-0.00341797
-0.00360107
-0.00341797
-0.00354004
-0.0032959000000000005
-0.00335693
-0.0032959000000000005
-0.00323486
-0.00335693
-0.003479
-0.003479
-0.00360107
-0.00354004
-0.00360107
-0.003479
-0.00360107
-0.003479
-0.003479
-0.00335693
-0.00341797
-0.003479
-0.00354004
-0.00341797
-0.00366211
-0.00354004
-0.00360107
-0.003479
-0.00360107
-0.00366211
-0.00366211
-0.00366211
-0.00366211
-0.00372314
-0.00354004
-0.00354004
-0.00360107
-0.00360107
-0.00354004
-0.003479
-0.00341797
-0.003479
-0.003479
-0.003479
-0.00341797
-0.00354004
-0.00341797
-0.003479
-0.00341797
-0.00354004
-0.00360107
-0.00360107
-0.00360107
-0.00354004
-0.00366211
-0.00360107
-0.003479
-0.00360107
-0.003479
-0.00354004
-0.0032959000000000005
-0.00341797
-0.00354004
-0.003479
-0.003479
-0.00341797
-0.00341797
-0.00354004
-0.00341797
-0.00341797
-0.00354004
-0.00366211
-0.00372314
-0.00372314
-0.003479
-0.00354004
-0.00341797
-0.003479
-0.00335693
-0.00354004
-0.00335693
-0.0032959000000000005
-0.00323486
-0.00335693
-0.00335693
-0.00323486
-0.00341797
-0.00341797
-0.003479
-0.003479
-0.003479
-0.003479
-0.003479
-0.00360107
-0.00360107
-0.00354004
-0.00360107
-0.00366211
-0.00360107
-0.00360107
-0.00360107
-0.00341797
-0.00317383
-0.00323486
-0.003479
-0.00354004
-0.00360107
-0.00372314
-0.00360107
-0.003479
-0.00335693
-0.00341797
-0.003479
-0.00366211
-0.00341797
-0.0032959000000000005
-0.00335693
-0.00335693
-0.0032959000000000005
-0.0032959000000000005
-0.00341797
-0.0032959000000000005
-0.00335693
-0.00335693
-0.0032959000000000005
-0.0032959000000000005
-0.00335693
-0.0032959000000000005
-0.0032959000000000005
-0.00341797
-0.00366211
-0.00354004
-0.00366211
-0.00360107
-0.003479
-0.003479
-0.00354004
-0.003479
-0.00360107
-0.00341797
-0.00341797
-0.00341797
-0.003479
-0.00341797
-0.003479
-0.003479
-0.00354004
-0.00354004
-0.003479
-0.00341797
-0.00354004
-0.00366211
-0.003479
-0.00360107
-0.00354004
-0.003479
-0.00354004
-0.00341797
-0.00335693
-0.003479
-0.00341797
-0.00354004
-0.003479
-0.00341797
-0.0032959000000000005
-0.00335693
-0.00335693
-0.00341797
-0.00341797
-0.00341797
-0.003479
-0.00341797
-0.00341797
-0.003479
-0.00354004
-0.00360107
-0.003479
-0.00341797
-0.00354004
-0.00354004
-0.00360107
-0.003479
-0.003479
-0.00360107
-0.00341797
-0.00354004
-0.00341797
-0.00341797
-0.0032959000000000005
-0.00341797
-0.00317383
-0.0032959000000000005
-0.00335693
-0.00323486
-0.0032959000000000005
-0.00335693
-0.003479
-0.00341797
-0.00335693
-0.00341797
-0.00341797
-0.003479
-0.0032959000000000005
-0.00341797
-0.00335693
-0.00335693
-0.0032959000000000005
-0.003479
-0.003479
-0.00341797
-0.00341797
-0.00360107
-0.00354004
-0.00354004
-0.00335693
-0.00360107
-0.003479
-0.00335693
-0.00341797
-0.00335693
-0.003479
-0.003479
-0.00341797
-0.0032959000000000005
-0.00335693
-0.00335693
-0.00323486
-0.00317383
-0.0032959000000000005
-0.00335693
-0.0032959000000000005
-0.00335693
-0.00335693
-0.00341797
-0.003479
-0.003479
-0.00335693
-0.003479
-0.00341797
-0.00335693
-0.003479
-0.00372314
-0.00354004
-0.00360107
-0.003479
-0.003479
-0.00335693
-0.00341797
-0.00341797
-0.00341797
-0.00341797
-0.003479
-0.0032959000000000005
-0.00354004
-0.00354004
-0.00341797
-0.00335693
-0.00335693
-0.00341797
-0.0032959000000000005
-0.00341797
-0.00335693
-0.00354004
-0.00354004
-0.00354004
-0.003479
-0.003479
-0.0032959000000000005
-0.00335693
-0.00335693
-0.00335693
-0.003479
-0.00360107
-0.003479
-0.00354004
-0.00354004
-0.00341797
-0.0032959000000000005
-0.0032959000000000005
-0.003479
-0.00335693
-0.00341797
-0.00335693
-0.00335693
-0.00335693
-0.00341797
-0.00335693
-0.00335693
-0.003479
-0.00341797
-0.00341797
-0.00335693
-0.003479
-0.00335693
-0.00341797
-0.00354004
-0.00360107
-0.003479
-0.003479
-0.00360107
-0.00354004
-0.00341797
-0.003479
-0.003479
-0.00341797
-0.003479
-0.00341797
-0.00341797
-0.00335693
-0.0032959000000000005
-0.00311279
-0.00335693
-0.0032959000000000005
-0.00323486
-0.0032959000000000005
-0.00317383
-0.00323486
-0.0032959000000000005
-0.00341797
-0.00341797
-0.00354004
-0.00360107
-0.003479
-0.00341797
-0.00341797
-0.00341797
-0.0032959000000000005
-0.00323486
-0.0032959000000000005
-0.003479
-0.00341797
-0.003479
-0.00341797
-0.00360107
-0.003479
-0.00341797
-0.00335693
-0.00341797
-0.003479
-0.00341797
-0.00354004
-0.00360107
-0.00354004
-0.00354004
-0.00354004
-0.00360107
-0.00360107
-0.00354004
-0.00341797
-0.00341797
-0.00360107
-0.00354004
-0.003479
-0.00354004
-0.00360107
-0.00354004
-0.00341797
-0.003479
-0.003479
-0.00354004
-0.00341797
-0.00341797
-0.00341797
-0.00341797
-0.003479
-0.00335693
-0.00341797
-0.00354004
-0.00354004
-0.003479
-0.0032959000000000005
-0.00341797
-0.00341797
-0.00335693
-0.0032959000000000005
-0.00354004
-0.003479
-0.00341797
-0.00341797
-0.00360107
-0.00354004
-0.003479
-0.00354004
-0.003479
-0.003479
-0.00341797
-0.0032959000000000005
-0.00341797
-0.00335693
-0.00323486
-0.00335693
-0.003479
-0.00360107
-0.00354004
-0.00372314
-0.00360107
-0.00360107
-0.003479
-0.00354004
-0.003479
-0.003479
-0.00341797
-0.0032959000000000005
-0.00335693
-0.00335693
-0.00354004
-0.003479
-0.00354004
-0.003479
-0.00360107
-0.00354004
-0.00360107
-0.00366211
-0.00354004
-0.003479
-0.00354004
-0.00354004
-0.00354004
-0.00341797
-0.00341797
-0.003479
-0.00360107
-0.00354004
-0.00341797
-0.003479
-0.00360107
-0.003479
-0.003479
-0.003479
-0.00360107
-0.00341797
-0.003479
-0.0032959000000000005
-0.00354004
-0.00354004
-0.00341797
-0.00341797
-0.003479
-0.003479
-0.00335693
-0.0032959000000000005
-0.00335693
-0.00341797
-0.0032959000000000005
-0.00335693
-0.00341797
-0.003479
-0.003479
-0.00335693
-0.00354004
-0.003479
-0.003479
-0.0032959000000000005
-0.00335693
-0.00341797
-0.00335693
-0.00335693
-0.00335693
-0.00354004
-0.003479
-0.00335693
-0.00335693
-0.00335693
-0.00323486
-0.00335693
-0.0032959000000000005
-0.00341797
-0.00354004
-0.00341797
-0.003479
-0.00341797
-0.00341797
-0.00335693
-0.00335693
-0.00341797
-0.00354004
-0.00335693
-0.00335693
-0.00341797
-0.00354004
-0.003479
-0.00360107
-0.00354004
-0.00354004
-0.00341797
-0.00341797
-0.00354004
-0.003479
-0.00366211
-0.003479
-0.0032959000000000005
-0.00317383
-0.00335693
-0.00335693
-0.00335693
-0.00366211
-0.00372314
-0.00360107
-0.00360107
-0.00354004
-0.00366211
-0.00354004
-0.00354004
-0.00360107
-0.00360107
-0.00354004
-0.00360107
-0.00354004
-0.00354004
-0.00335693
-0.003479
-0.003479
-0.00372314
-0.00354004
-0.00354004
-0.00335693
-0.00335693
-0.00341797
-0.00354004
-0.00335693
-0.00366211
-0.00360107
-0.00360107
-0.00360107
-0.00360107
-0.00335693
-0.00341797
-0.00335693
-0.00341797
-0.003479
-0.003479
-0.00341797
-0.00335693
-0.00354004
-0.00341797
-0.00335693
-0.00360107
-0.00354004
-0.00335693
-0.003479
-0.00354004
-0.00354004
-0.00341797
-0.003479
-0.003479
-0.003479
-0.00366211
-0.00354004
-0.003479
-0.00360107
-0.00354004
-0.003479
-0.00323486
-0.00335693
-0.00341797
-0.00341797
-0.0032959000000000005
-0.003479
-0.00341797
-0.00354004
-0.00341797
-0.00335693
-0.00341797
-0.00341797
-0.00335693
-0.00341797
-0.00354004
-0.00360107
-0.00341797
-0.00335693
-0.00335693
-0.003479
-0.0032959000000000005
-0.003479
-0.003479
-0.00354004
-0.00335693
-0.00341797
-0.00354004
-0.00354004
-0.00354004
-0.003479
-0.00354004
-0.00360107
-0.00360107
-0.003479
-0.00354004
-0.00366211
-0.00354004
-0.00354004
-0.00360107
-0.00354004
-0.00354004
-0.00354004
-0.003479
-0.00360107
-0.00354004
-0.00341797
-0.00354004
-0.00335693
-0.00360107
-0.00354004
-0.00354004
-0.00354004
-0.00354004
-0.00354004
-0.003479
-0.00360107
-0.00372314
-0.00360107
-0.00341797
-0.00354004
-0.0032959000000000005
-0.003479
-0.0032959000000000005
-0.00354004
-0.00335693
-0.00335693
-0.00341797
-0.003479
-0.003479
-0.00366211
-0.00360107
-0.003479
-0.00366211
-0.00366211
-0.00354004
-0.00354004
-0.00360107
-0.00360107
-0.003479
-0.00341797
-0.00372314
-0.00360107
-0.00360107
-0.00360107
-0.00360107
-0.00366211
-0.00354004
-0.00354004
-0.003479
-0.00360107
-0.00366211
-0.00366211
-0.00372314
-0.00366211
-0.00360107
-0.003479
-0.00341797
-0.00354004
-0.00360107
-0.00360107
-0.00354004
-0.00366211
-0.003479
-0.00372314
-0.003479
-0.003479
-0.00354004
-0.00354004
-0.00341797
-0.00341797
-0.00341797
-0.003479
-0.00341797
-0.00341797
-0.00354004
-0.00366211
-0.00360107
-0.003479
-0.003479
-0.003479
-0.00341797
-0.00317383
-0.00323486
-0.00335693
-0.0032959000000000005
-0.00341797
-0.003479
-0.00335693
-0.00341797
-0.0032959000000000005
-0.0032959000000000005
-0.0032959000000000005
-0.00335693
-0.00323486
-0.0032959000000000005
-0.00335693
-0.00335693
-0.00335693
-0.0032959000000000005
-0.00341797
-0.00360107
-0.00360107
-0.003479
-0.00354004
-0.003479
-0.00335693
-0.00341797
-0.00354004
-0.00366211
-0.00366211
-0.00354004
-0.003479
-0.00335693
-0.0032959000000000005
-0.00335693
-0.00341797
-0.003479
-0.00360107
-0.00354004
-0.00354004
-0.003479
-0.00384521
-0.00360107
-0.00354004
-0.0032959000000000005
-0.00341797
-0.00323486
-0.00341797
-0.00341797
-0.00372314
-0.00372314
-0.00341797
-0.003479
-0.00366211
-0.00354004
-0.0032959000000000005
-0.00323486
-0.0032959000000000005
-0.00335693
-0.003479
-0.003479
-0.00341797
-0.003479
-0.00341797
-0.00341797
-0.00354004
-0.00335693
-0.00335693
-0.00323486
-0.0032959000000000005
-0.00354004
-0.00335693
-0.00341797
-0.00341797
-0.003479
-0.00335693
-0.00341797
-0.00335693
-0.00360107
-0.00354004
-0.003479
-0.003479
-0.00366211
-0.003479
-0.00335693
-0.003479
-0.00360107
-0.00360107
-0.0032959000000000005
-0.003479
-0.00354004
-0.003479
-0.00360107
-0.003479
-0.00335693
-0.003479
-0.00341797
-0.00323486
-0.00354004
-0.00354004
-0.00354004
-0.003479
-0.00360107
-0.00341797
-0.00341797
-0.00335693
-0.003479
-0.00354004
-0.00354004
-0.00354004
-0.00360107
-0.00354004
-0.003479
-0.0032959000000000005
-0.0032959000000000005
-0.00335693
-0.003479
-0.003479
-0.00354004
-0.00360107
-0.00354004
-0.00354004
-0.00341797
-0.003479
-0.003479
-0.00341797
-0.003479
-0.00360107
-0.00354004
-0.00366211
-0.003479
-0.003479
-0.00360107
-0.00354004
-0.00354004
-0.003479
-0.003479
-0.003479
-0.00360107
-0.00360107
-0.00354004
-0.003479
-0.00360107
-0.00372314
-0.00384521
-0.00378418
-0.00378418
-0.00372314
-0.00354004
-0.00366211
-0.003479
-0.00354004
-0.00360107
-0.00354004
-0.00354004
-0.003479
-0.003479
-0.00341797
-0.00341797
-0.00360107
-0.00360107
-0.00366211
-0.00354004
-0.00354004
-0.00360107
-0.00354004
-0.00360107
-0.00360107
-0.00354004
-0.00354004
-0.00341797
-0.00341797
-0.00341797
-0.00354004
-0.003479
-0.0032959000000000005
-0.00335693
-0.003479
-0.003479
-0.003479
-0.00341797
-0.00372314
-0.00354004
-0.003479
-0.00335693
-0.00335693
-0.0032959000000000005
-0.00335693
-0.00335693
-0.00335693
-0.00335693
-0.00335693
-0.003479
-0.003479
-0.003479
-0.003479
-0.003479
-0.00335693
-0.00335693
-0.003479
-0.00335693
-0.0032959000000000005
-0.00341797
-0.00360107
-0.00341797
-0.003479
-0.00354004
-0.00354004
-0.00335693
-0.00341797
-0.00341797
-0.00354004
-0.00341797
-0.00341797
-0.00341797
-0.00341797
-0.003479
-0.003479
-0.00341797
-0.00341797
-0.0032959000000000005
-0.0032959000000000005
-0.00335693
-0.003479
-0.00354004
-0.00341797
-0.00335693
-0.00360107
-0.003479
-0.0032959000000000005
-0.00317383
-0.0032959000000000005
-0.00335693
-0.00335693
-0.0032959000000000005
-0.0032959000000000005
-0.00335693
-0.0032959000000000005
-0.003479
-0.00335693
-0.00335693
-0.00341797
-0.00341797
-0.00323486
-0.00341797
-0.003479
-0.00335693
-0.0032959000000000005
-0.00341797
-0.00341797
-0.00335693
-0.00341797
-0.00335693
-0.0032959000000000005
-0.00317383
-0.00317383
-0.00335693
-0.00335693
-0.003479
-0.003479
-0.00341797
-0.0032959000000000005
-0.003479
-0.00335693
-0.0032959000000000005
-0.00335693
-0.00341797
-0.00317383
-0.00335693
-0.00323486
-0.003479
-0.00335693
-0.0032959000000000005
-0.00341797
-0.0032959000000000005
-0.0032959000000000005
-0.00335693
-0.00360107
-0.00360107
-0.00341797
-0.0032959000000000005
-0.00341797
-0.00335693
-0.003479
-0.00335693
-0.003479
-0.00341797
-0.003479
-0.003479
-0.00335693
-0.00335693
-0.003479
-0.00341797
-0.00335693
-0.00354004
-0.00360107
-0.003479
-0.00360107
-0.00354004
-0.00354004
-0.00341797
-0.003479
-0.003479
-0.00341797
-0.003479
-0.00341797
-0.00341797
-0.00360107
-0.00354004
-0.00360107
-0.00366211
-0.00366211
-0.00354004
-0.00354004
-0.003479
-0.00354004
-0.00354004
-0.003479
-0.003479
-0.00354004
-0.00354004
-0.003479
-0.00354004
-0.00360107
-0.00341797
-0.003479
-0.00341797
-0.00341797
-0.00341797
-0.00341797
-0.00341797
-0.00360107
-0.00360107
-0.003479
-0.00354004
-0.003479
-0.00354004
-0.003479
-0.003479
-0.00335693
-0.00354004
-0.00335693
-0.003479
-0.00341797
-0.00366211
-0.00372314
-0.003479
-0.00335693
-0.00341797
-0.00341797
-0.003479
-0.00354004
-0.003479
-0.00341797
-0.0032959000000000005
-0.0032959000000000005
-0.00341797
-0.00354004
-0.00360107
-0.003479
-0.00360107
-0.00360107
-0.003479
-0.00341797
-0.00335693
-0.00335693
-0.00341797
-0.00341797
-0.00335693
-0.003479
-0.00360107
-0.00360107
-0.0032959000000000005
-0.003479
-0.0032959000000000005
-0.00335693
-0.003479
-0.00360107
-0.00378418
-0.00384521
-0.00360107
-0.00366211
-0.00360107
-0.003479
-0.003479
-0.00341797
-0.00354004
-0.00335693
-0.003479
-0.003479
-0.00341797
-0.003479
-0.00335693
-0.0032959000000000005
-0.00335693
-0.003479
-0.00341797
-0.00341797
-0.003479
-0.003479
-0.003479
-0.00354004
-0.00354004
-0.00360107
-0.00366211
-0.00354004
-0.003479
-0.00354004
-0.00354004
-0.00341797
-0.00354004
-0.00360107
-0.003479
-0.003479
-0.00366211
-0.00366211
-0.00366211
-0.00360107
-0.003479
-0.00360107
-0.00360107
-0.00372314
-0.00354004
-0.00360107
-0.00354004
-0.00354004
-0.00341797
-0.00366211
-0.00360107
-0.00360107
-0.003479
-0.003479
-0.00354004
-0.00341797
-0.00341797
-0.003479
-0.00354004
-0.00366211
-0.00360107
-0.00360107
-0.00360107
-0.00341797
-0.0032959000000000005
-0.0032959000000000005
-0.00341797
-0.00341797
-0.00323486
-0.00335693
-0.00335693
-0.00354004
-0.003479
-0.00335693
-0.003479
-0.003479
-0.00335693
-0.00335693
-0.0032959000000000005
-0.00341797
-0.00335693
-0.00341797
-0.00354004
-0.00335693
-0.00341797
-0.00335693
-0.00323486
-0.00341797
-0.003479
-0.00341797
-0.00323486
-0.00335693
-0.00341797
-0.00341797
-0.00341797
-0.00335693
-0.003479
-0.00335693
-0.00335693
-0.00323486
-0.00341797
-0.00335693
-0.00341797
-0.00341797
-0.003479
-0.00335693
-0.003479
-0.0032959000000000005
-0.00335693
-0.00341797
-0.00323486
-0.00323486
-0.0032959000000000005
-0.00335693
-0.0032959000000000005
-0.00317383
-0.00335693
-0.003479
-0.00335693
-0.00341797
-0.00341797
-0.003479
-0.003479
-0.003479
-0.00341797
-0.00335693
-0.00341797
-0.00323486
-0.00341797
-0.00341797
-0.00354004
-0.00354004
-0.003479
-0.003479
-0.00341797
-0.00335693
-0.00341797
-0.00335693
-0.00341797
-0.00341797
-0.003479
-0.00341797
-0.00354004
-0.00341797
-0.00335693
-0.00341797
-0.00360107
-0.00354004
-0.00360107
-0.00366211
-0.00366211
-0.003479
-0.00341797
-0.003479
-0.00341797
-0.00354004
-0.0032959000000000005
-0.00323486
-0.00335693
-0.00323486
-0.00317383
-0.00335693
-0.00354004
-0.00354004
-0.003479
-0.003479
-0.0032959000000000005
-0.00354004
-0.00341797
-0.00341797
-0.00335693
-0.003479
-0.00335693
-0.00323486
-0.0032959000000000005
-0.00354004
-0.00335693
-0.00335693
-0.00335693
-0.00341797
-0.00335693
-0.0032959000000000005
-0.003479
-0.003479
-0.00335693
-0.00335693
-0.00335693
-0.003479
-0.00354004
-0.00360107
-0.00360107
-0.00360107
-0.00354004
-0.00335693
-0.00341797
-0.00335693
-0.003479
-0.003479
-0.003479
-0.00366211
-0.00366211
-0.00360107
-0.00360107
-0.00372314
-0.00354004
-0.003479
-0.00341797
-0.003479
-0.00360107
-0.00366211
-0.00366211
-0.00360107
-0.00354004
-0.003479
-0.0032959000000000005
-0.00341797
-0.00354004
-0.00360107
-0.00366211
-0.00360107
-0.00366211
-0.00372314
-0.003479
-0.00354004
-0.00360107
-0.003479
-0.003479
-0.00341797
-0.003479
-0.003479
-0.00341797
-0.003479
-0.00335693
-0.00366211
-0.00360107
-0.00360107
-0.00335693
-0.00360107
-0.00341797
-0.00341797
-0.00341797
-0.003479
-0.003479
-0.0032959000000000005
-0.00341797
-0.00354004
-0.00360107
-0.003479
-0.00354004
-0.00335693
-0.0032959000000000005
-0.00335693
-0.00341797
-0.003479
-0.003479
-0.00335693
-0.003479
-0.00335693
-0.00341797
-0.003479
-0.00341797
-0.00354004
-0.00354004
-0.00341797
-0.00341797
-0.0032959000000000005
-0.00341797
-0.00341797
-0.00335693
-0.00335693
-0.00335693
-0.00341797
-0.00335693
-0.003479
-0.00354004
-0.00335693
-0.00354004
-0.00335693
-0.00341797
-0.00360107
-0.003479
-0.00341797
-0.00354004
-0.00360107
-0.00354004
-0.003479
-0.00354004
-0.00354004
-0.00341797
-0.00360107
-0.003479
-0.00354004
-0.00360107
-0.00354004
-0.003479
-0.003479
-0.0032959000000000005
-0.00335693
-0.00354004
-0.003479
-0.00341797
-0.003479
-0.003479
-0.00360107
-0.00366211
-0.00354004
-0.003479
-0.00341797
-0.0032959000000000005
-0.0032959000000000005
-0.00323486
-0.00323486
-0.00335693
-0.003479
-0.003479
-0.00341797
-0.003479
-0.003479
-0.00341797
-0.0032959000000000005
-0.00341797
-0.0032959000000000005
-0.00317383
-0.00335693
-0.00335693
-0.00354004
-0.00354004
-0.00341797
-0.00341797
-0.003479
-0.00323486
-0.0032959000000000005
-0.0032959000000000005
-0.00317383
-0.00323486
-0.00323486
-0.00311279
-0.00323486
-0.00311279
-0.00335693
-0.00317383
-0.00323486
-0.00335693
-0.00317383
-0.00341797
-0.00323486
-0.00341797
-0.00341797
-0.0032959000000000005
-0.003479
-0.0032959000000000005
-0.00341797
-0.00323486
-0.00335693
-0.00335693
-0.00323486
-0.00335693
-0.003479
-0.00335693
-0.003479
-0.003479
-0.003479
-0.00341797
-0.0032959000000000005
-0.00341797
-0.00335693
-0.0032959000000000005
-0.003479
-0.00335693
-0.0032959000000000005
-0.00335693
-0.00341797
-0.003479
-0.00335693
-0.00335693
-0.00354004
-0.00341797
-0.00335693
-0.00341797
-0.00335693
-0.003479
-0.00335693
-0.00341797
-0.003479
-0.00317383
-0.00323486
-0.00317383
-0.00341797
-0.003479
-0.00341797
-0.003479
-0.00341797
-0.003479
-0.00335693
-0.0032959000000000005
-0.00341797
-0.0032959000000000005
-0.00317383
-0.00311279
-0.00317383
-0.00323486
-0.00317383
-0.00323486
-0.00341797
-0.00354004
-0.00317383
-0.00335693
-0.00335693
-0.0032959000000000005
-0.0032959000000000005
-0.00335693
-0.00341797
-0.00366211
-0.00354004
-0.00341797
-0.0032959000000000005
-0.0032959000000000005
-0.00341797
-0.00317383
-0.00311279
-0.00335693
-0.00341797
-0.00335693
-0.00323486
-0.0032959000000000005
-0.00335693
-0.00341797
-0.00335693
-0.00335693
-0.00341797
-0.003479
-0.0032959000000000005
-0.0032959000000000005
-0.00323486
-0.00323486
-0.00335693
-0.003479
-0.003479
-0.00360107
-0.003479
-0.003479
-0.00341797
-0.00341797
-0.0032959000000000005
-0.00354004
-0.00354004
-0.003479
-0.00341797
-0.00341797
-0.003479
-0.00360107
-0.00354004
-0.003479
-0.00354004
-0.00360107
-0.00360107
-0.00360107
-0.003479
-0.00354004
-0.00354004
-0.00354004
-0.00354004
-0.00366211
-0.003479
-0.003479
-0.00323486
-0.0032959000000000005
-0.0032959000000000005
-0.0032959000000000005
-0.00323486
-0.003479
-0.003479
-0.003479
-0.003479
-0.00341797
-0.0032959000000000005
-0.00317383
-0.00299072
-0.00311279
-0.00311279
-0.00311279
-0.00299072
-0.00323486
-0.00341797
-0.003479
-0.00341797
-0.00335693
-0.00341797
-0.00335693
-0.00323486
-0.00317383
-0.00317383
-0.00341797
-0.00335693
-0.00323486
-0.00323486
-0.00335693
-0.00311279
-0.00305176
-0.00311279
-0.00311279
-0.00299072
-0.00299072
-0.00311279
-0.00323486
-0.00323486
-0.00323486
-0.00341797
-0.00354004
-0.00366211
-0.00360107
-0.003479
-0.00354004
-0.00354004
-0.00354004
-0.00335693
-0.00341797
-0.00341797
-0.003479
-0.00335693
-0.003479
-0.003479
-0.00335693
-0.00323486
-0.00317383
-0.0032959000000000005
-0.00317383
-0.00317383
-0.0032959000000000005
-0.00341797
-0.00323486
-0.003479
-0.003479
-0.00354004
-0.00354004
-0.00372314
-0.00354004
-0.00341797
-0.0032959000000000005
-0.00323486
-0.0032959000000000005
-0.00323486
-0.00335693
-0.0032959000000000005
-0.0032959000000000005
-0.00354004
-0.003479
-0.00341797
-0.00323486
-0.00335693
-0.00341797
-0.00341797
-0.00335693
-0.00354004
-0.003479
-0.0032959000000000005
-0.00335693
-0.00335693
-0.003479
-0.00335693
-0.003479
-0.00341797
-0.003479
-0.003479
-0.00341797
-0.003479
-0.00335693
-0.00354004
-0.00354004
-0.00335693
-0.003479
-0.00341797
-0.00341797
-0.00341797
-0.003479
-0.003479
-0.00354004
-0.00360107
-0.003479
-0.00354004
-0.00354004
-0.00341797
-0.003479
-0.00341797
-0.00366211
-0.003479
-0.00360107
-0.00360107
-0.00360107
-0.00360107
-0.003479
-0.00360107
-0.003479
-0.0032959000000000005
-0.00335693
-0.0032959000000000005
-0.00323486
-0.00317383
-0.00305176
-0.00323486
-0.0032959000000000005
-0.00317383
-0.0032959000000000005
-0.00305176
-0.00323486
-0.00311279
-0.00305176
-0.00311279
-0.00323486
-0.0032959000000000005
-0.00323486
-0.0032959000000000005
-0.003479
-0.00341797
-0.0032959000000000005
-0.00323486
-0.0032959000000000005
-0.00323486
-0.00311279
-0.00323486
-0.00311279
-0.0032959000000000005
-0.00335693
-0.00335693
-0.0032959000000000005
-0.0032959000000000005
-0.00323486
-0.00323486
-0.00335693
-0.00354004
-0.003479
-0.00354004
-0.003479
-0.00366211
-0.00360107
-0.003479
-0.00335693
-0.00341797
-0.00335693
-0.00335693
-0.00323486
-0.003479
-0.003479
-0.003479
-0.003479
-0.003479
-0.003479
-0.003479
-0.00341797
-0.00360107
-0.00360107
-0.00341797
-0.0032959000000000005
-0.00341797
-0.00341797
-0.00335693
-0.00341797
-0.00317383
-0.00323486
-0.00323486
-0.00335693
-0.00317383
-0.003479
-0.00360107
-0.00360107
-0.00372314
-0.00360107
-0.00354004
-0.00341797
-0.0032959000000000005
-0.0032959000000000005
-0.00335693
-0.0032959000000000005
-0.0032959000000000005
-0.0032959000000000005
-0.00317383
-0.00323486
-0.00305176
-0.00299072
-0.00305176
-0.00323486
-0.00305176
-0.00292969
-0.00317383
-0.00323486
-0.00317383
-0.00335693
-0.003479
-0.00354004
-0.00354004
-0.00341797
-0.00354004
-0.00360107
-0.003479
-0.00354004
-0.00335693
-0.003479
-0.0032959000000000005
-0.00335693
-0.00335693
-0.00354004
-0.00335693
-0.00341797
-0.003479
-0.003479
-0.00354004
-0.003479
-0.00360107
-0.00354004
-0.00354004
-0.003479
-0.00354004
-0.00354004
-0.00360107
-0.00341797
-0.003479
-0.003479
-0.00341797
-0.00335693
-0.0032959000000000005
-0.00341797
-0.003479
-0.00360107
-0.00341797
-0.00335693
-0.00341797
-0.003479
-0.00335693
-0.003479
-0.00360107
-0.00341797
-0.003479
-0.00341797
-0.00341797
-0.00354004
-0.003479
-0.00354004
-0.00335693
-0.00323486
-0.00354004
-0.003479
-0.00354004
-0.003479
-0.00341797
-0.00341797
-0.00360107
-0.003479
-0.00341797
-0.00354004
-0.00354004
-0.00366211
-0.00341797
-0.00341797
-0.0032959000000000005
-0.00323486
-0.00305176
-0.00317383
-0.0032959000000000005
-0.00335693
-0.003479
-0.003479
-0.003479
-0.00341797
-0.00341797
-0.00341797
-0.00341797
-0.00341797
-0.003479
-0.00341797
-0.00335693
-0.00341797
-0.00341797
-0.0032959000000000005
-0.0032959000000000005
-0.0032959000000000005
-0.00341797
-0.00341797
-0.00335693
-0.00360107
-0.00360107
-0.00354004
-0.00341797
-0.00354004
-0.00341797
-0.003479
-0.0032959000000000005
-0.00341797
-0.0032959000000000005
-0.00354004
-0.00341797
-0.00341797
-0.00335693
-0.00335693
-0.00341797
-0.003479
-0.00341797
-0.00354004
-0.00354004
-0.00354004
-0.00354004
-0.00372314
-0.00360107
-0.00341797
-0.00323486
-0.00323486
-0.00323486
-0.00335693
-0.00354004
-0.00354004
-0.00360107
-0.00335693
-0.003479
-0.003479
-0.003479
-0.00341797
-0.00341797
-0.00341797
-0.00354004
-0.00335693
-0.00341797
-0.003479
-0.00354004
-0.00354004
-0.00341797
-0.003479
-0.00360107
-0.003479
-0.00341797
-0.00341797
-0.00366211
-0.00360107
-0.00354004
-0.003479
-0.003479
-0.00341797
-0.003479
-0.003479
-0.00360107
-0.00372314
-0.00360107
-0.00341797
-0.00354004
-0.00341797
-0.003479
-0.003479
-0.00354004
-0.00378418
-0.00354004
-0.00354004
-0.003479
-0.00354004
-0.00341797
-0.003479
-0.003479
-0.00366211
-0.00372314
-0.00354004
-0.003479
-0.003479
-0.00360107
-0.00354004
-0.00341797
-0.00335693
-0.00354004
-0.00335693
-0.0032959000000000005
-0.003479
-0.00354004
-0.00335693
-0.00317383
-0.00335693
-0.003479
-0.00360107
-0.00354004
-0.003479
-0.00372314
-0.00354004
-0.003479
-0.003479
-0.00341797
-0.003479
-0.00354004
-0.0032959000000000005
-0.0032959000000000005
-0.00341797
-0.003479
-0.003479
-0.00354004
-0.00366211
-0.00354004
-0.003479
-0.00335693
-0.00354004
-0.00341797
-0.00341797
-0.003479
-0.00372314
-0.003479
-0.00354004
-0.003479
-0.00360107
-0.00354004
-0.00341797
-0.00360107
-0.003479
-0.003479
-0.003479
-0.00354004
-0.00354004
-0.003479
-0.00335693
-0.003479
-0.00360107
-0.00360107
-0.00354004
-0.00354004
-0.003479
-0.003479
-0.00341797
-0.00354004
-0.003479
-0.00341797
-0.00341797
-0.00360107
-0.003479
-0.00354004
-0.00341797
-0.00354004
-0.003479
-0.00341797
-0.003479
-0.00335693
-0.00335693
-0.00360107
-0.003479
-0.00360107
-0.00341797
-0.0032959000000000005
-0.00335693
-0.003479
-0.00341797
-0.00354004
-0.00360107
-0.00360107
-0.003479
-0.00360107
-0.00354004
-0.00341797
-0.00341797
-0.00341797
-0.00335693
-0.00341797
-0.00341797
-0.00360107
-0.003479
-0.00354004
-0.003479
-0.003479
-0.00360107
-0.00366211
-0.00360107
-0.003479
-0.00360107
-0.00360107
-0.003479
-0.00335693
-0.00335693
-0.00335693
-0.00341797
-0.00341797
-0.00341797
-0.003479
-0.00341797
-0.003479
-0.00335693
-0.003479
-0.003479
-0.00335693
-0.003479
-0.00354004
-0.00341797
-0.003479
-0.00341797
-0.00341797
-0.00335693
-0.00335693
-0.00335693
-0.0032959000000000005
-0.00317383
-0.00323486
-0.00323486
-0.0032959000000000005
-0.00317383
-0.0032959000000000005
-0.00335693
-0.0032959000000000005
-0.00341797
-0.003479
-0.0032959000000000005
-0.00335693
-0.003479
-0.00335693
-0.00341797
-0.00341797
-0.00360107
-0.00360107
-0.003479
-0.003479
-0.00354004
-0.003479
-0.0032959000000000005
-0.003479
-0.003479
-0.00366211
-0.00354004
-0.003479
-0.00354004
-0.00341797
-0.00335693
-0.003479
-0.00341797
-0.00360107
-0.003479
-0.00341797
-0.003479
-0.00341797
-0.00354004
-0.00341797
-0.003479
-0.00341797
-0.00341797
-0.00341797
-0.0032959000000000005
-0.003479
-0.003479
-0.0032959000000000005
-0.00341797
-0.00335693
-0.00335693
-0.00335693
-0.00335693
-0.00335693
-0.00341797
-0.00341797
-0.003479
-0.00360107
-0.00354004
-0.00354004
-0.00360107
-0.00354004
-0.00341797
-0.00341797
-0.003479
-0.00335693
-0.0032959000000000005
-0.00341797
-0.00335693
-0.0032959000000000005
-0.00335693
-0.00341797
-0.00354004
-0.003479
-0.003479
-0.00354004
-0.00341797
-0.003479
-0.00335693
-0.003479
-0.00341797
-0.00360107
-0.003479
-0.003479
-0.00335693
-0.00341797
-0.00354004
-0.00366211
-0.003479
-0.00354004
-0.00354004
-0.00360107
-0.00354004
-0.003479
-0.003479
-0.00360107
-0.00360107
-0.003479
-0.00341797
-0.00354004
-0.00335693
-0.00341797
-0.00341797
-0.00366211
-0.00360107
-0.003479
-0.00360107
-0.00354004
-0.003479
-0.00335693
-0.003479
-0.00360107
-0.003479
-0.00354004
-0.00354004
-0.00341797
-0.003479
-0.00354004
-0.00341797
-0.00335693
-0.00360107
-0.00354004
-0.00354004
-0.00354004
-0.00366211
-0.00354004
-0.003479
-0.00335693
-0.003479
-0.00354004
-0.00354004
-0.003479
-0.00378418
-0.00354004
-0.00360107
-0.00354004
-0.00341797
-0.00341797
-0.003479
-0.00341797
-0.00360107
-0.00354004
-0.00360107
-0.00341797
-0.003479
-0.00366211
-0.003479
-0.00360107
-0.00366211
-0.00354004
-0.00360107
-0.003479
-0.00341797
-0.003479
-0.00360107
-0.00354004
-0.003479
-0.00360107
-0.00360107
-0.00335693
-0.003479
-0.00341797
-0.003479
-0.00341797
-0.00341797
-0.00354004
-0.00354004
-0.00354004
-0.00354004
-0.00354004
-0.003479
-0.00335693
-0.00335693
-0.00323486
-0.00335693
-0.00335693
-0.0032959000000000005
-0.00335693
-0.00341797
-0.003479
-0.00341797
-0.00341797
-0.00341797
-0.00354004
-0.00341797
-0.00354004
-0.003479
-0.00360107
-0.00360107
-0.00360107
-0.00366211
-0.00366211
-0.00360107
-0.00341797
-0.00354004
-0.00341797
-0.003479
-0.00341797
-0.00354004
-0.00366211
-0.00366211
-0.00372314
-0.00354004
-0.00354004
-0.00366211
-0.003479
-0.003479
-0.003479
-0.003479
-0.003479
-0.00354004
-0.00360107
-0.003479
-0.00341797
-0.00341797
-0.00335693
-0.00335693
-0.003479
-0.00341797
-0.00317383
-0.00335693
-0.003479
-0.00335693
-0.0032959000000000005
-0.00335693
-0.00335693
-0.0032959000000000005
-0.0032959000000000005
-0.00323486
-0.00335693
-0.00317383
-0.00323486
-0.00323486
-0.00341797
-0.00354004
-0.00354004
-0.00354004
-0.00354004
-0.00354004
-0.0032959000000000005
-0.00341797
-0.003479
-0.00354004
-0.003479
-0.003479
-0.00360107
-0.003479
-0.003479
-0.00341797
-0.003479
-0.00354004
-0.00354004
-0.00341797
-0.00341797
-0.003479
-0.003479
-0.003479
-0.00341797
-0.00341797
-0.0032959000000000005
-0.00335693
-0.00341797
-0.003479
-0.003479
-0.00341797
-0.003479
-0.00341797
-0.00341797
-0.00341797
-0.00335693
-0.00335693
-0.00335693
-0.00341797
-0.00354004
-0.00360107
-0.00360107
-0.00360107
-0.003479
-0.00354004
-0.003479
-0.00354004
-0.00360107
-0.00354004
-0.003479
-0.00354004
-0.0032959000000000005
-0.00335693
-0.00341797
-0.0032959000000000005
-0.0032959000000000005
-0.00317383
-0.00317383
-0.00341797
-0.003479
-0.00335693
-0.00360107
-0.003479
-0.00335693
-0.00335693
-0.00341797
-0.00366211
-0.00354004
-0.00354004
-0.00354004
-0.00354004
-0.003479
-0.00335693
-0.00341797
-0.00354004
-0.00341797
-0.00335693
-0.00341797
-0.003479
-0.00341797
-0.003479
-0.003479
-0.00341797
-0.00360107
-0.003479
-0.00335693
-0.00354004
-0.003479
-0.0032959000000000005
-0.00341797
-0.00341797
-0.00354004
-0.00354004
-0.00341797
-0.003479
-0.00360107
-0.00341797
-0.00354004
-0.003479
-0.00360107
-0.00354004
-0.003479
-0.00360107
-0.00366211
-0.00354004
-0.003479
-0.0032959000000000005
-0.0032959000000000005
-0.00335693
-0.003479
-0.00341797
-0.00341797
-0.00354004
-0.00354004
-0.00354004
-0.00354004
-0.00354004
-0.00360107
-0.003479
-0.00360107
-0.00354004
-0.00335693
-0.00323486
-0.00341797
-0.003479
-0.0032959000000000005
-0.00341797
-0.00341797
-0.003479
-0.00335693
-0.00335693
-0.00335693
-0.00341797
-0.00360107
-0.00354004
-0.003479
-0.00354004
-0.00366211
-0.00360107
-0.003479
-0.00341797
-0.00335693
-0.00341797
-0.00341797
-0.00341797
-0.003479
-0.00354004
-0.00317383
-0.00335693
-0.0032959000000000005
-0.00323486
-0.00335693
-0.00354004
-0.00360107
-0.00372314
-0.00360107
-0.00360107
-0.00366211
-0.00354004
-0.00354004
-0.00360107
-0.003479
-0.003479
-0.00341797
-0.00335693
-0.003479
-0.0032959000000000005
-0.00335693
-0.00335693
-0.00317383
-0.00317383
-0.00317383
-0.00305176
-0.00323486
-0.00311279
-0.00305176
-0.00311279
-0.00317383
-0.00305176
-0.00317383
-0.00305176
-0.00292969
-0.00305176
-0.00311279
-0.00280762
-0.00311279
-0.00305176
-0.00305176
-0.00317383
-0.00323486
-0.00323486
-0.00341797
-0.00323486
-0.00335693
-0.00335693
-0.00335693
-0.00311279
-0.00299072
-0.00311279
-0.0032959000000000005
-0.00323486
-0.0032959000000000005
-0.0032959000000000005
-0.00341797
-0.0032959000000000005
-0.00311279
-0.0032959000000000005
-0.00323486
-0.0032959000000000005
-0.00323486
-0.00335693
-0.00335693
-0.00341797
-0.00341797
-0.003479
-0.00341797
-0.00323486
-0.00311279
-0.00299072
-0.00311279
-0.00317383
-0.00305176
-0.00317383
-0.00335693
-0.00335693
-0.00335693
-0.0032959000000000005
-0.00323486
-0.0032959000000000005
-0.00323486
-0.00323486
-0.00323486
-0.003479
-0.00354004
-0.00341797
-0.003479
-0.0032959000000000005
-0.0032959000000000005
-0.00317383
-0.00317383
-0.00335693
-0.00354004
-0.003479
-0.00366211
-0.00372314
-0.00372314
-0.00354004
-0.00341797
-0.00335693
-0.00341797
-0.00317383
-0.00335693
-0.00323486
-0.00354004
-0.00335693
-0.0032959000000000005
-0.00317383
-0.00323486
-0.00317383
-0.00317383
-0.00323486
-0.00317383
-0.0032959000000000005
-0.00311279
-0.00299072
-0.00317383
-0.00323486
-0.00335693
-0.00323486
-0.00335693
-0.0032959000000000005
-0.00323486
-0.00317383
-0.0032959000000000005
-0.003479
-0.0032959000000000005
-0.00311279
-0.00311279
-0.00286865
-0.00305176
-0.00305176
-0.0032959000000000005
-0.003479
-0.00341797
-0.00366211
-0.003479
-0.00354004
-0.003479
-0.00341797
-0.00335693
-0.00341797
-0.00335693
-0.0032959000000000005
-0.00335693
-0.00335693
-0.0032959000000000005
-0.00299072
-0.00299072
-0.00311279
-0.00299072
-0.00311279
-0.00323486
-0.00341797
-0.00335693
-0.00341797
-0.00323486
-0.00317383
-0.00305176
-0.00286865
-0.00274658
-0.00286865
-0.00292969
-0.00305176
-0.0032959000000000005
-0.00323486
-0.0032959000000000005
-0.00335693
-0.00323486
-0.0032959000000000005
-0.0032959000000000005
-0.00341797
-0.00341797
-0.003479
-0.00366211
-0.00354004
-0.00354004
-0.00341797
-0.003479
-0.00341797
-0.00335693
-0.0032959000000000005
-0.00323486
-0.0032959000000000005
-0.00335693
-0.00335693
-0.00341797
-0.00323486
-0.00341797
-0.00335693
-0.0032959000000000005
-0.003479
-0.00366211
-0.00360107
-0.003479
-0.00354004
-0.00354004
-0.003479
-0.00341797
-0.00341797
-0.003479
-0.00341797
-0.0032959000000000005
-0.003479
-0.0032959000000000005
-0.00341797
-0.00335693
-0.00335693
-0.00335693
-0.00354004
-0.00335693
-0.00341797
-0.00341797
-0.00341797
-0.00335693
-0.00335693
-0.00335693
-0.00341797
-0.00335693
-0.00323486
-0.00341797
-0.00335693
-0.00323486
-0.00341797
-0.003479
-0.003479
-0.00360107
-0.00354004
-0.00360107
-0.003479
-0.003479
-0.00341797
-0.003479
-0.003479
-0.00354004
-0.00360107
-0.003479
-0.00341797
-0.003479
-0.00335693
-0.003479
-0.003479
-0.00360107
-0.00360107
-0.00354004
-0.00341797
-0.00341797
-0.00335693
-0.00341797
-0.0032959000000000005
-0.003479
-0.003479
-0.00354004
-0.00354004
-0.00354004
-0.00335693
-0.00317383
-0.00317383
-0.00317383
-0.0032959000000000005
-0.0032959000000000005
-0.00341797
-0.003479
-0.00354004
-0.00354004
-0.00341797
-0.003479
-0.003479
-0.00335693
-0.00323486
-0.00335693
-0.00323486
-0.00341797
-0.0032959000000000005
-0.0032959000000000005
-0.00335693
-0.00335693
-0.0032959000000000005
-0.00341797
-0.00335693
-0.00341797
-0.00335693
-0.00360107
-0.00354004
-0.003479
-0.00341797
-0.00366211
-0.00354004
-0.00360107
-0.00335693
-0.00341797
-0.003479
-0.0032959000000000005
-0.00317383
-0.00317383
-0.00317383
-0.00311279
-0.00311279
-0.00292969
-0.00299072
-0.00311279
-0.00323486
-0.00317383
-0.00335693
-0.00341797
-0.00317383
-0.00317383
-0.00335693
-0.0032959000000000005
-0.00335693
-0.00323486
-0.00335693
-0.00335693
-0.00360107
-0.00335693
-0.003479
-0.00335693
-0.00335693
-0.00323486
-0.0032959000000000005
-0.00335693
-0.0032959000000000005
-0.00311279
-0.00317383
-0.00311279
-0.00311279
-0.00305176
-0.00317383
-0.00317383
-0.00317383
-0.00292969
-0.00299072
-0.00292969
-0.00305176
-0.00311279
-0.00311279
-0.00299072
-0.00317383
-0.00335693
-0.0032959000000000005
-0.00354004
-0.00354004
-0.00360107
-0.00360107
-0.00341797
-0.00354004
-0.00341797
-0.00311279
-0.00305176
-0.00317383
-0.00323486
-0.00335693
-0.00354004
-0.00366211
-0.00366211
-0.00354004
-0.00354004
-0.003479
-0.00360107
-0.00335693
-0.00335693
-0.00354004
-0.003479
-0.00341797
-0.003479
-0.00323486
-0.00341797
-0.00354004
-0.00341797
-0.00341797
-0.00354004
-0.00360107
-0.003479
-0.00360107
-0.00366211
-0.00366211
-0.00366211
-0.00341797
-0.003479
-0.00354004
-0.00335693
-0.00335693
-0.003479
-0.00341797
-0.00354004
-0.00335693
-0.003479
-0.003479
-0.00354004
-0.00360107
-0.003479
-0.00341797
-0.003479
-0.00341797
-0.0032959000000000005
-0.00341797
-0.003479
-0.00341797
-0.00335693
-0.003479
-0.003479
-0.003479
-0.003479
-0.003479
-0.00360107
-0.003479
-0.00341797
-0.003479
-0.00341797
-0.00354004
-0.00335693
-0.003479
-0.00360107
-0.00354004
-0.003479
-0.0032959000000000005
-0.003479
-0.00354004
-0.00341797
-0.003479
-0.00354004
-0.00354004
-0.00341797
-0.0032959000000000005
-0.00335693
-0.003479
-0.00341797
-0.00335693
-0.00341797
-0.00341797
-0.003479
-0.0032959000000000005
-0.003479
-0.00341797
-0.003479
-0.00335693
-0.00354004
-0.00354004
-0.00341797
-0.00341797
-0.00341797
-0.003479
-0.003479
-0.00323486
-0.00341797
-0.00335693
-0.003479
-0.0032959000000000005
-0.0032959000000000005
-0.00335693
-0.00341797
-0.00341797
-0.0032959000000000005
-0.003479
-0.00341797
-0.00354004
-0.00354004
-0.00341797
-0.00360107
-0.003479
-0.00335693
-0.00341797
-0.00341797
-0.00335693
-0.00335693
-0.003479
-0.00360107
-0.00341797
-0.00341797
-0.0032959000000000005
-0.00341797
-0.00354004
-0.00354004
-0.00354004
-0.00354004
-0.00366211
-0.003479
-0.00341797
-0.00341797
-0.003479
-0.00354004
-0.003479
-0.00360107
-0.00354004
-0.003479
-0.00335693
-0.00335693
-0.003479
-0.00360107
-0.00341797
-0.003479
-0.00341797
-0.00341797
-0.00335693
-0.0032959000000000005
-0.00317383
-0.00317383
-0.00292969
-0.00311279
-0.00323486
-0.00335693
-0.00335693
-0.00335693
-0.003479
-0.00354004
-0.003479
-0.00341797
-0.00360107
-0.00360107
-0.003479
-0.00354004
-0.00360107
-0.00360107
-0.00354004
-0.00341797
-0.00341797
-0.00341797
-0.00335693
-0.00335693
-0.00335693
-0.0032959000000000005
-0.0032959000000000005
-0.00335693
-0.00311279
-0.003479
-0.00341797
-0.00335693
-0.00323486
-0.00323486
-0.00323486
-0.00311279
-0.00299072
-0.00299072
-0.00299072
-0.00317383
-0.00323486
-0.00341797
-0.00335693
-0.0032959000000000005
-0.00323486
-0.00323486
-0.00354004
-0.00341797
-0.00323486
-0.00317383
-0.00311279
-0.00268555
-0.00280762
-0.00268555
-0.00292969
-0.00268555
-0.00274658
-0.00274658
-0.00311279
-0.00323486
-0.00341797
-0.00335693
-0.003479
-0.0032959000000000005
-0.00323486
-0.00335693
-0.00292969
-0.00292969
-0.00305176
-0.00305176
-0.00311279
-0.00323486
-0.00317383
-0.00311279
-0.00292969
-0.00305176
-0.00323486
-0.0032959000000000005
-0.0032959000000000005
-0.00335693
-0.00335693
-0.00323486
-0.0032959000000000005
-0.0032959000000000005
-0.00317383
-0.00305176
-0.00305176
-0.00305176
-0.0032959000000000005
-0.00335693
-0.00341797
-0.0032959000000000005
-0.00341797
-0.00341797
-0.00335693
-0.00317383
-0.00311279
-0.00311279
-0.00292969
-0.00292969
-0.00311279
-0.0032959000000000005
-0.00323486
-0.00323486
-0.00317383
-0.0032959000000000005
-0.003479
-0.00335693
-0.003479
-0.00341797
-0.00335693
-0.00323486
-0.00317383
-0.00311279
-0.0032959000000000005
-0.00323486
-0.00335693
-0.00341797
-0.00354004
-0.00335693
-0.00335693
-0.003479
-0.00335693
-0.003479
-0.0032959000000000005
-0.0032959000000000005
-0.003479
-0.003479
-0.0032959000000000005
-0.003479
-0.00341797
-0.00360107
-0.00335693
-0.00341797
-0.003479
-0.00360107
-0.00354004
-0.003479
-0.00341797
-0.00341797
-0.00323486
-0.00335693
-0.0032959000000000005
-0.00341797
-0.003479
-0.00341797
-0.00341797
-0.003479
-0.003479
-0.00341797
-0.003479
-0.00354004
-0.00335693
-0.00341797
-0.00341797
-0.00335693
-0.00335693
-0.003479
-0.003479
-0.00335693
-0.00341797
-0.00335693
-0.003479
-0.00341797
-0.00341797
-0.003479
-0.00341797
-0.00354004
-0.00354004
-0.00354004
-0.00341797
-0.003479
-0.00341797
-0.00341797
-0.00354004
-0.003479
-0.00341797
-0.003479
-0.00335693
-0.00360107
-0.00360107
-0.00341797
-0.00341797
-0.00341797
-0.00341797
-0.00354004
-0.00354004
-0.00354004
-0.00366211
-0.003479
-0.00366211
-0.003479
-0.00341797
-0.00354004
-0.003479
-0.00341797
-0.00360107
-0.003479
-0.00341797
-0.00335693
-0.00341797
-0.00341797
-0.00335693
-0.00341797
-0.00335693
-0.00341797
-0.003479
-0.003479
-0.00360107
-0.00366211
-0.00360107
-0.00354004
-0.003479
-0.00360107
-0.00366211
-0.003479
-0.003479
-0.00354004
-0.00366211
-0.00360107
-0.00360107
-0.00354004
-0.00360107
-0.00360107
-0.00360107
-0.00354004
-0.00366211
-0.00360107
-0.003479
-0.00341797
-0.003479
-0.00335693
-0.0032959000000000005
-0.00341797
-0.00354004
-0.00378418
-0.00354004
-0.00360107
-0.00360107
-0.003479
-0.00341797
-0.003479
-0.00360107
-0.00354004
-0.00360107
-0.003479
-0.00360107
-0.00360107
-0.00335693
-0.00341797
-0.00360107
-0.00354004
-0.0032959000000000005
-0.00323486
-0.00317383
-0.00317383
-0.00323486
-0.00323486
-0.00335693
-0.0032959000000000005
-0.00317383
-0.00323486
-0.00335693
-0.00335693
-0.003479
-0.003479
-0.00354004
-0.00360107
-0.00360107
-0.003479
-0.00354004
-0.00360107
-0.003479
-0.00335693
-0.0032959000000000005
-0.0032959000000000005
-0.00335693
-0.00323486
-0.00317383
-0.0032959000000000005
-0.0032959000000000005
-0.00335693
-0.0032959000000000005
-0.00335693
-0.0032959000000000005
-0.00341797
-0.00335693
-0.00335693
-0.003479
-0.00354004
-0.003479
-0.00366211
-0.003479
-0.003479
-0.00341797
-0.0032959000000000005
-0.0032959000000000005
-0.00335693
-0.003479
-0.00341797
-0.003479
-0.00354004
-0.00354004
-0.00335693
-0.003479
-0.00335693
-0.00335693
-0.00335693
-0.00341797
-0.00360107
-0.00335693
-0.003479
-0.003479
-0.00354004
-0.00341797
-0.00354004
-0.00341797
-0.00366211
-0.00360107
-0.00354004
-0.00354004
-0.00360107
-0.00354004
-0.00354004
-0.00360107
-0.003479
-0.00341797
-0.003479
-0.00335693
-0.00341797
-0.00341797
-0.003479
-0.00341797
-0.003479
-0.00366211
-0.00372314
-0.00378418
-0.00360107
-0.00366211
-0.00360107
-0.00354004
-0.00341797
-0.00341797
-0.00335693
-0.00335693
-0.00341797
-0.00360107
-0.003479
-0.003479
-0.00341797
-0.00341797
-0.00335693
-0.00341797
-0.00335693
-0.00341797
-0.00360107
-0.00354004
-0.00360107
-0.00366211
-0.003479
-0.003479
-0.00323486
-0.00335693
-0.003479
-0.00354004
-0.00341797
-0.003479
-0.00335693
-0.00360107
-0.00341797
-0.003479
-0.00360107
-0.003479
-0.00360107
-0.00354004
-0.00360107
-0.00354004
-0.00341797
-0.00341797
-0.00360107
-0.00372314
-0.00360107
-0.003479
-0.00354004
-0.00354004
-0.00354004
-0.00354004
-0.00354004
-0.00360107
-0.00360107
-0.00341797
-0.00366211
-0.00335693
-0.00341797
-0.00335693
-0.0032959000000000005
-0.003479
-0.00354004
-0.003479
-0.003479
-0.00360107
-0.003479
-0.00354004
-0.00354004
-0.00366211
-0.003479
-0.00360107
-0.00354004
-0.003479
-0.00354004
-0.003479
-0.00366211
-0.00366211
-0.00360107
-0.00354004
-0.00360107
-0.003479
-0.003479
-0.00360107
-0.00360107
-0.00341797
-0.003479
-0.00354004
-0.003479
-0.003479
-0.00341797
-0.00335693
-0.00341797
-0.003479
-0.003479
-0.00366211
-0.003479
-0.00341797
-0.003479
-0.00354004
-0.003479
-0.00354004
-0.003479
-0.0032959000000000005
-0.00335693
-0.0032959000000000005
-0.00317383
-0.00335693
-0.00335693
-0.0032959000000000005
-0.00335693
-0.00366211
-0.00360107
-0.00354004
-0.003479
-0.003479
-0.003479
-0.00341797
-0.0032959000000000005
-0.00354004
-0.003479
-0.003479
-0.00341797
-0.00341797
-0.00341797
-0.00354004
-0.003479
-0.00341797
-0.0032959000000000005
-0.00341797
-0.00323486
-0.0032959000000000005
-0.003479
-0.003479
-0.003479
-0.00341797
-0.00360107
-0.00366211
-0.003479
-0.003479
-0.003479
-0.00366211
-0.00354004
-0.00354004
-0.00360107
-0.00354004
-0.00360107
-0.00354004
-0.0032959000000000005
-0.00335693
-0.00341797
-0.003479
-0.00360107
-0.00372314
-0.00384521
-0.00372314
-0.00366211
-0.00378418
-0.00366211
-0.00354004
-0.00341797
-0.0032959000000000005
-0.00317383
-0.0032959000000000005
-0.0032959000000000005
-0.003479
-0.00360107
-0.00354004
-0.003479
-0.003479
-0.00341797
-0.00317383
-0.00305176
-0.00317383
-0.00335693
-0.0032959000000000005
-0.00317383
-0.00323486
-0.0032959000000000005
-0.00335693
-0.0032959000000000005
-0.00354004
-0.00372314
-0.00372314
-0.00366211
-0.00360107
-0.00341797
-0.00317383
-0.00323486
-0.00317383
-0.0032959000000000005
-0.003479
-0.00341797
-0.003479
-0.003479
-0.00366211
-0.00354004
-0.00335693
-0.003479
-0.00335693
-0.0032959000000000005
-0.00341797
-0.003479
-0.00360107
-0.00360107
-0.00341797
-0.00341797
-0.0032959000000000005
-0.0032959000000000005
-0.00317383
-0.00323486
-0.00335693
-0.00335693
-0.00335693
-0.00335693
-0.00354004
-0.00354004
-0.00366211
-0.00360107
-0.003479
-0.00360107
-0.00354004
-0.00354004
-0.00335693
-0.00335693
-0.00354004
-0.003479
-0.00354004
-0.00366211
-0.00384521
-0.00378418
-0.00378418
-0.00372314
-0.00354004
-0.00341797
-0.00354004
-0.00354004
-0.00354004
-0.0032959000000000005
-0.0032959000000000005
-0.00305176
-0.00317383
-0.00305176
-0.00305176
-0.00317383
-0.0032959000000000005
-0.00335693
-0.003479
-0.003479
-0.00354004
-0.00360107
-0.00366211
-0.00341797
-0.00360107
-0.00354004
-0.0032959000000000005
-0.00341797
-0.0032959000000000005
-0.00341797
-0.003479
-0.00341797
-0.003479
-0.00341797
-0.00335693
-0.00335693
-0.00360107
-0.00360107
-0.00335693
-0.00335693
-0.00354004
-0.00354004
-0.00335693
-0.003479
-0.00341797
-0.00335693
-0.0032959000000000005
-0.0032959000000000005
-0.00341797
-0.00341797
-0.00354004
-0.00360107
-0.00360107
-0.00341797
-0.00354004
-0.00341797
-0.003479
-0.00354004
-0.00360107
-0.00360107
-0.003479
-0.00354004
-0.003479
-0.00354004
-0.0032959000000000005
-0.00335693
-0.00335693
-0.00341797
-0.00335693
-0.00341797
-0.00341797
-0.003479
-0.00335693
-0.003479
-0.00366211
-0.00360107
-0.00384521
-0.00360107
-0.00354004
-0.00354004
-0.0032959000000000005
-0.00323486
-0.00317383
-0.00335693
-0.00341797
-0.00354004
-0.00354004
-0.00366211
-0.00354004
-0.003479
-0.00354004
-0.00354004
-0.00354004
-0.003479
-0.003479
-0.003479
-0.00354004
-0.00341797
-0.00341797
-0.00354004
-0.00341797
-0.00354004
-0.00354004
-0.00366211
-0.00372314
-0.00366211
-0.003479
-0.003479
-0.00335693
-0.00341797
-0.00354004
-0.00366211
-0.00366211
-0.00366211
-0.00354004
-0.00341797
-0.00341797
-0.00335693
-0.00335693
-0.003479
-0.00354004
-0.00360107
-0.00341797
-0.00354004
-0.003479
-0.00341797
-0.003479
-0.00354004
-0.003479
-0.00335693
-0.0032959000000000005
-0.0032959000000000005
-0.00335693
-0.003479
-0.00335693
-0.00335693
-0.00360107
-0.00366211
-0.003479
-0.003479
-0.00341797
-0.003479
-0.00366211
-0.003479
-0.003479
-0.0032959000000000005
-0.00335693
-0.00341797
-0.00341797
-0.00354004
-0.00341797
-0.00335693
-0.00323486
-0.00335693
-0.00335693
-0.0032959000000000005
-0.003479
-0.003479
-0.0032959000000000005
-0.00341797
-0.0032959000000000005
-0.00341797
-0.00341797
-0.00341797
-0.003479
-0.00341797
-0.0032959000000000005
-0.00305176
-0.00311279
-0.00311279
-0.00311279
-0.0032959000000000005
-0.00341797
-0.003479
-0.00341797
-0.003479
-0.00335693
-0.00335693
-0.0032959000000000005
-0.00354004
-0.00341797
-0.00341797
-0.00354004
-0.003479
-0.00354004
-0.00341797
-0.00341797
-0.00341797
-0.00335693
-0.00323486
-0.0032959000000000005
-0.003479
-0.00335693
-0.00317383
-0.00323486
-0.00317383
-0.00317383
-0.00317383
-0.00341797
-0.00354004
-0.00335693
-0.00335693
-0.00341797
-0.00354004
-0.00360107
-0.00341797
-0.00341797
-0.003479
-0.003479
-0.0032959000000000005
-0.00317383
-0.00323486
-0.00335693
-0.00323486
-0.00354004
-0.00360107
-0.00372314
-0.00341797
-0.00341797
-0.0032959000000000005
-0.00354004
-0.00341797
-0.00354004
-0.00360107
-0.00360107
-0.00354004
-0.00360107
-0.00335693
-0.00335693
-0.00341797
-0.00341797
-0.0032959000000000005
-0.003479
-0.003479
-0.003479
-0.00335693
-0.00335693
-0.003479
-0.00341797
-0.003479
-0.003479
-0.0032959000000000005
-0.00323486
-0.00317383
-0.00323486
-0.0032959000000000005
-0.0032959000000000005
-0.00335693
-0.0032959000000000005
-0.00335693
-0.00341797
-0.00341797
-0.00341797
-0.00354004
-0.003479
-0.0032959000000000005
-0.0032959000000000005
-0.00335693
-0.0032959000000000005
-0.00335693
-0.003479
-0.00341797
-0.003479
-0.003479
-0.003479
-0.00366211
-0.00354004
-0.00360107
-0.00335693
-0.003479
-0.00341797
-0.00341797
-0.003479
-0.00341797
-0.003479
-0.00360107
-0.00335693
-0.00341797
-0.00354004
-0.00366211
-0.00360107
-0.00341797
-0.0032959000000000005
-0.003479
-0.00335693
-0.0032959000000000005
-0.003479
-0.00360107
-0.003479
-0.00354004
-0.00354004
-0.003479
-0.00360107
-0.00341797
-0.003479
-0.00354004
-0.00341797
-0.00335693
-0.003479
-0.0032959000000000005
-0.00341797
-0.00341797
-0.00366211
-0.00360107
-0.00366211
-0.00360107
-0.00341797
-0.00341797
-0.0032959000000000005
-0.00323486
-0.00317383
-0.00323486
-0.00317383
-0.00317383
-0.00311279
-0.00335693
-0.00341797
-0.003479
-0.00341797
-0.00341797
-0.00335693
-0.003479
-0.00323486
-0.00335693
-0.00341797
-0.00341797
-0.00341797
-0.00335693
-0.00341797
-0.00341797
-0.00323486
-0.00335693
-0.00335693
-0.00335693
-0.00323486
-0.0032959000000000005
-0.00323486
-0.00335693
-0.00341797
-0.00341797
-0.00341797
-0.00341797
-0.00341797
-0.00341797
-0.00360107
-0.00360107
-0.003479
-0.00341797
-0.003479
-0.00360107
-0.00366211
-0.00360107
-0.003479
-0.003479
-0.003479
-0.003479
-0.003479
-0.003479
-0.00360107
-0.00354004
-0.00341797
-0.00360107
-0.00354004
-0.00341797
-0.00341797
-0.00341797
-0.00341797
-0.0032959000000000005
-0.00341797
-0.00341797
-0.003479
-0.00335693
-0.00341797
-0.00354004
-0.003479
-0.003479
-0.00341797
-0.00360107
-0.003479
-0.00341797
-0.00341797
-0.00335693
-0.00341797
-0.003479
-0.00360107
-0.00354004
-0.00366211
-0.00360107
-0.00360107
-0.00360107
-0.00366211
-0.003479
-0.00354004
-0.00341797
-0.00360107
-0.00354004
-0.00366211
-0.00366211
-0.00366211
-0.00354004
-0.003479
-0.003479
-0.00354004
-0.003479
-0.0032959000000000005
-0.0032959000000000005
-0.0032959000000000005
-0.00335693
-0.00341797
-0.00341797
-0.00335693
-0.00366211
-0.00354004
-0.00360107
-0.00354004
-0.00360107
-0.00354004
-0.003479
-0.00354004
-0.003479
-0.00354004
-0.00354004
-0.00366211
-0.00360107
-0.00360107
-0.003479
-0.00360107
-0.00354004
-0.00360107
-0.003479
-0.00335693
-0.00341797
-0.00335693
-0.00335693
-0.003479
-0.00341797
-0.00341797
-0.00354004
-0.00341797
-0.003479
-0.003479
-0.00360107
-0.00341797
-0.00341797
-0.003479
-0.00354004
-0.00341797
-0.003479
-0.003479
-0.00354004
-0.00341797
-0.00341797
-0.003479
-0.00354004
-0.003479
-0.003479
-0.00354004
-0.003479
-0.003479
-0.0032959000000000005
-0.00323486
-0.00335693
-0.003479
-0.00354004
-0.00335693
-0.00341797
-0.00335693
-0.0032959000000000005
-0.00335693
-0.0032959000000000005
-0.00341797
-0.003479
-0.00341797
-0.003479
-0.00360107
-0.003479
-0.00354004
-0.00341797
-0.003479
-0.003479
-0.0032959000000000005
-0.00323486
-0.0032959000000000005
-0.00341797
-0.0032959000000000005
-0.003479
-0.003479
-0.00360107
-0.003479
-0.00360107
-0.00354004
-0.00372314
-0.00354004
-0.003479
-0.003479
-0.00360107
-0.00354004
-0.003479
-0.00354004
-0.00335693
